Frequency [Hz]	Total Phase [deg]	Vent 1 SPL [dB]	Total SPL 2pi [dB]
5	-61.0896385104163	59.7249653532643	20.3162723836709
5.07272667468762	-60.8823995612151	59.9722486087142	20.7708561084171
5.14651118321746	-60.682059399938	60.2194632978299	21.2262153942259
5.22136891213707	-60.4887169066417	60.4666080101215	21.6823398438753
5.29731547179648	-60.3024701851846	60.713681305415	22.1392188486445
5.37436669960348	-60.1234165446222	60.9606817131304	22.5968415977693
5.45253866332629	-59.9516524843695	61.2076077315322	23.0551970879692
5.53184766444417	-59.7872736831296	61.4544578269468	23.5142741330199
5.61231024154687	-59.630374991581	61.7012304329474	23.9740613733381
5.69394317378346	-59.4810504287906	61.9479239495031	24.4345472855513
5.77676348436136	-59.3393931823294	62.1945367420894	24.8957201920236
5.86078844409626	-59.2054956120471	62.4410671407585	25.3575682703074
5.9460355750136	-59.0794492574587	62.6875134391658	25.8200795624983
6.03252265400261	-58.9613448486722	62.9338738935499	26.2832419844621
6.12026771652328	-58.8512723208186	63.1801467216627	26.7470433349127
6.20928906036742	-58.7493208318988	63.4263301016472	27.2114713043133
6.29960524947437	-58.6555787839617	63.6724221708575	27.6765134835799
6.39123511780215	-58.5701338475589	63.9184210246186	28.1421573725626
6.48419777325505	-58.4930729893667	64.1643247149219	28.6083903882855
6.57851260166819	-58.4244825028961	64.4101312490505	29.0751998729227
6.67419927085017	-58.3644480421987	64.6558385881314	29.5425731014917
6.77127773468446	-58.3130546584723	64.901444645608	30.0104972892458
6.86976823729045	-58.2703868394625	65.1469472856286	30.4789595987486
6.969691317245	-58.2365285515716	65.3923443213446	30.9479471466109
7.07106781186548	-58.2115632845673	65.6376335131125	31.4174470098797
7.173918861555	-58.1955740987863	65.8828125665928	31.8874462320574
7.27826591421094	-58.1886436747468	66.12787913074	32.3579318287438
7.3841307296975	-58.1908543650494	66.3728307956744	32.8288907928811
7.49153538438341	-58.2022882484755	66.6176650904305	33.3003100995952
7.60050227574557	-58.2230271861884	66.8623794805709	33.7721767106149
7.7110541270397	-58.2531528799217	67.106971365659	34.2444775782632
7.82321399203887	-58.292746932072	67.3514380765806	34.7171996490044
7.937005259841	-58.3418909075901	67.5957768727039	35.1903298665392
8.05245165974627	-58.4006663975777	67.8399849388683	35.6638551744363
8.1695772662055	-58.4691550844987	68.0840593821901	36.1377625182902
8.28840650384044	-58.5474388089028	68.3279972286744	36.612038847395
8.40896415253714	-58.6355996375808	68.57179541962	37.0866711159239
8.53127535261343	-58.7337199330568	68.8154508078041	37.5616462836048
8.65536561006143	-58.8418824243231	69.0589601534345	38.0369513158813
8.7812608018665	-58.9601702787417	69.3023201198523	38.5125731835491
8.90898718140339	-59.0886671750087	69.5455272689729	38.9884988618575
9.03857138391101	-59.2274573771126	69.7885780564456	39.4647153290637
9.17004043204671	-59.3766258091813	70.0314688265188	39.9412095644309
9.30342174152147	-59.536258131142	70.2741958065896	40.4179685456566
9.43874312681693	-59.7064408150996	70.5167551014217	40.8949792457193
9.57603280698574	-59.8872612223473	70.7591426870103	41.3722286291313
9.71531941153606	-60.0788076809073	71.0013544040746	41.8497036475844
9.85663198640188	-60.2811695635187	71.243385951157	42.3273912349719
10	-60.4944373659633	71.4852328773049	42.8052783017758
10.1454533493752	-60.7187027856316	71.726890574314	43.2833517288007
10.2930223664349	-60.9540588002139	71.9683542685077	43.7615983602378
10.4427378242741	-61.2005997464098	72.209619012028	44.2400049960441
10.594630943593	-61.4584213985281	72.4506796736112	44.7185583836154
10.748733399207	-61.7276210468452	72.6915309288232	45.1972452087359
10.9050773266526	-62.0082975755885	72.9321672497243	45.6760520857844
11.0636953288883	-62.3005515403895	73.1725828939366	46.1549655471744
11.2246204830937	-62.6044852450463	73.4127718930842	46.6339720320084
11.3878863475669	-62.9202028174187	73.652728040575	47.1130578739226
11.5535269687227	-63.2478102842698	73.8924448786949	47.5922092880991
11.7215768881925	-63.5874156448437	74.1319156849821	48.071412357421
11.8920711500272	-63.9391289429608	74.3711334578487	48.5506530177466
12.0650453080052	-64.3030623373833	74.6100909014195	49.0299170422769
12.2405354330466	-64.6793301701936	74.8487804095539	49.5091900249917
12.4185781207348	-65.0680490328956	75.0871940490188	49.9884573631271
12.5992104989487	-65.4693378299313	75.3253235417809	50.4677042386711
12.7824702356043	-65.8833178392774	75.5631602463856	50.9469155988499
12.9683955465101	-66.3101127697574	75.8006951383923	51.4260761355815
13.1570252033364	-66.7498488146767	76.037918789835	51.9051702638711
13.3483985417003	-67.2026547013583	76.2748213476806	52.3841820991269
13.5425554693689	-67.668661736116	76.5113925112558	52.8630954333733
13.7395364745809	-68.1480038441791	76.7476215086201	53.3418937103437
13.93938263449	-68.6408176040337	76.98349707186	53.820559999434
14.142135623731	-69.1472422756146	77.219007411287	54.2990769685039
14.34783772311	-69.6674198217395	77.4541401885229	54.7774268555152
14.5565318284219	-70.2014949221361	77.6888824884615	55.2555914390001
14.768261459395	-70.7496149793691	77.9232207901001	55.7335520073579
14.9830707687668	-71.3119301159321	78.1571409362423	56.2112893269858
15.2010045514911	-71.888593161724	78.3906281020761	56.6887836092518
15.4221082540794	-72.4797596310874	78.6236667626434	57.1660144763303
15.6464279840777	-73.085587688539	78.8562406592235	57.6429609259252
15.874010519682	-73.7062381022803	79.0883327646621	58.1196012949186
16.1049033194925	-74.3418741845367	79.3199252476907	58.5959132219894
16.339154532411	-74.9926617177284	79.5509994362916	59.0718736092629
16.5768130076809	-75.6587688654436	79.7815357801762	59.5474585830631
16.8179283050743	-76.3403660671506	80.0115138124637	60.0226434538533
17.0625507052269	-77.0376259155524	80.2409121106569	60.4974026754697
17.3107312201229	-77.7507230154715	80.469708257036	60.9717098037675
17.562521603733	-78.4798338231325	80.697878798606	61.4455374548193
17.8179743628068	-79.2251364647059	80.9253992067568	61.9188572628272
18.077142767822	-79.986810532981	81.1522438368172	62.3916398379316
18.3400808640934	-80.7650368610503	81.378385887707	62.8638547241216
18.6068434830429	-81.559997271922	81.603797361919	63.3354703574838
18.8774862536339	-82.37187430302	81.8284490260873	63.8064540250445
19.1520656139715	-83.2008509046017	82.0523103724304	64.2767718244962
19.4306388230721	-84.0471101112049	82.275349581383	64.7463886251261
19.7132639728038	-84.9108346853508	82.4975334857656	65.2152680302933
20	-85.7922067328615	82.7188275368694	65.683372341836
20.2909066987505	-86.6914072893195	82.9391957728673	66.1506625268205
20.5860447328698	-87.6086158773889	83.158600789994	66.6170981870747
20.8854756485483	-88.5440100349514	83.3770037169691	67.0826375319833
21.1892618871859	-89.4977648142747	83.5943641931691	67.5472373550487
21.4974667984139	-90.4700522527358	83.8106403510815	68.0108530147534
21.8101546533052	-91.4610408159681	84.0257888036026	68.4734384202863
22.1273906577767	-92.4708948146871	84.2397646367621	68.9349460227163
22.4492409661875	-93.4997737968823	84.4525214084801	69.3953268122178
22.7757726951338	-94.5478319175343	84.6640111539721	69.8545303219679
23.1070539374455	-95.6152172885353	84.8741843984284	70.3125046393382
23.443153776385	-96.7020713120483	85.0829901775946	70.7691964250109
23.7841423000544	-97.8085280011398	85.290376066868	71.2245509406333
24.1300906160104	-98.9347132921518	85.4962882195111	71.6785120856123
24.4810708660931	-100.080744353945	85.7006714145479	72.1310224436151
24.8371562414697	-101.246728899827	85.9034691148697	72.5820233393022
25.1984209978975	-102.432764508691	86.1046235360155	73.0314549057598
25.5649404712086	-103.63893796258	86.304075726023	73.4792561630246
25.9367910930202	-104.865324608606	86.5017656566526	73.9253651080071
26.3140504066728	-106.11198775382	86.6976323261822	74.3697188160082
26.6967970834007	-107.378978102274	86.8916138738408	74.8122535538988
27.0851109387379	-108.666333244085	87.0836477058078	75.2529049048887
27.4790729491618	-109.974077206837	87.2736706325374	75.6916079046439
27.87876526898	-111.302220080053	87.4616190169843	76.1282971883294
28.2842712474619	-112.650757723764	87.6474289331081	76.5629071479533
28.69567544622	-114.01967157236	87.8310363338123	76.9953720991692
29.1130636568437	-115.408928544898	88.0123772272428	77.4256264564608
29.53652291879	-116.818481072821	88.1913878601226	77.8536049153861
29.9661415375336	-118.248267255695	88.3680049065472	78.2792426403041
30.4020091029823	-119.69821115488	88.5421656603996	78.7024754557448
30.8442165081588	-121.168223234239	88.7138082292846	79.1232400393192
31.2928559681555	-122.658200955845	88.8828717276184	79.541474113808
31.748021039364	-124.168029537273	89.0492964662612	79.9571166358139
32.2098066389851	-125.697582875433	89.2130241358396	80.3701079781256
32.678309064822	-127.246724639994	89.3739979806881	80.7803901027225
33.1536260153617	-128.815309537288	89.5321629601472	81.1879067211553
33.6358566101486	-130.403184743209	89.6874658937917	81.5926034388792
34.1251014104537	-132.010191501007	89.8398555870394	81.9944278799866
34.6214624402457	-133.636166877068	89.989282933506	82.3933297887064
35.125043207466	-135.280945664827	90.1357009904372	82.7892611039996
35.6359487256136	-136.944362423861	90.2790650235578	83.1821760035918
36.154285535644	-138.626253638043	90.4193325177495	83.5720309138528
36.6801617281868	-140.326459973414	90.556463150085	83.9587844820516
37.2136869660859	-142.044828613195	90.6904187219268	84.3423975076942
37.7549725072677	-143.781215644179	90.8211630470298	84.7228328298831
38.3041312279429	-145.535488465599	90.9486617928785	85.100055167929
38.8612776461442	-147.307528188548	91.0728822728303	85.4740309127861
39.4265279456075	-149.097231991137	91.1937931870327	85.8447278672782
40	-150.904515391822	91.3113643105307	86.2121149335316
40.581813397501	-152.729314400757	91.4255661274727	86.5761617465225
41.1720894657397	-154.571587506655	91.5363694108677	86.9368382531927
41.7709512970966	-156.431317454394	91.6437447479381	87.294114237175
42.3785237743718	-158.30851276663	91.747662011749	87.6479587898116
42.9949335968278	-160.203208960839	91.8480897804837	87.9983397288339
43.6203093066103	-162.115469411598	91.9449947064833	88.3452229668194
44.2547813155533	-164.045385806533	92.0383408379669	88.6885718323456
44.8984819323749	-165.9930781432	92.1280888972285	89.0283463476335
45.5515453902677	-167.958694213344	92.2141955200567	89.3645024674275
46.2141078748909	-169.942408520469	92.2966124621658	89.6969912849013
46.88630755277	-171.944420576635	92.3752857795737	90.0257582115216
47.5682846001088	-173.964952525014	92.4501549911165	90.3507421390641
48.2601812320209	-176.004246036045	92.5211522326757	90.6718745933521
48.9621417321862	-178.062558427432	92.5882014142039	90.989078890807
49.6743124829394	179.859842038135	92.6512173922817	91.3022693105422
50.3968419957949	177.762681718423	92.710105172712	91.6113502965055
51.1298809424172	175.645688053922	92.7647591595435	91.9162157060616
51.8735821860404	173.508596950979	92.8150624688782	92.2167481233714
52.6281008133455	171.351161097471	92.8608863278235	92.5128182579246
53.3935941668014	169.17315920697	92.902089580914	92.8042844505543
54.1702218774757	166.974406168087	92.9385183281781	93.0909923111054
54.9581458983236	164.754764052313	92.9700057206277	93.372774513537
55.75753053796	162.514153906192	92.9963719401756	93.6494507754622
56.5685424949238	160.25256822184	93.017424391653	93.9208280497967
57.39135089244	157.970083944021	93.03295813452	94.1867009561109
58.2261273136875	155.666875832618	93.0427565808255	94.4468524782391
59.07304583758	153.343229957453	93.0465924837526	94.7010549524843
59.9322830750673	150.999557059217	93.0442292374837	94.9490713671505
60.8040182059646	148.636405467844	93.0354225039398	95.1906569889579
61.6884330163176	146.2544732302	93.0199221750698	95.4255613250154
62.585711936311	143.854619065444	92.9974746707312	95.6535304203939
63.496042078728	141.437871741952	92.9678255618675	95.8743094810022
64.4196132779702	139.005437457739	92.9307224968378	96.0876457996244
65.356618129644	136.558704810207	92.8859183957366	96.2932919499531
66.3072520307235	134.099246963736	92.8331748638557	96.4910091997727
67.2717132202972	131.628820667459	92.7722657617591	96.6805710807626
68.2502028209074	129.149361841639	92.7029808565732	96.861767039522
69.2429248804914	126.662977539149	92.6251294679276	97.0344060832514
70.250086414932	124.171934196665	92.5385440134595	97.1983203250052
71.2718974512271	121.678642214505	92.443083353788	97.3533683284191
72.3085710712881	119.185637038907	92.3386358361085	97.4994381510642
73.3603234563737	116.695557058834	92.2251219395617	97.6364499895811
74.4273739321717	114.211118762827	92.1024964344784	97.7643583386953
75.5099450145355	111.735089721434	91.9707499813212	97.8831535899354
76.6082624558859	109.270260058992	91.8299101130766	97.9928630138068
77.7225552922885	106.819413148045	91.680041566076	98.0935510903983
78.853055891215	104.385296295213	91.5212459475327	98.1853191767114
80	101.970592186304	91.3536607520742	98.2683045229885
81.1636267950019	99.577891820915	91.1774577627554	98.3426786735264
82.3441789314794	97.2096695956026	90.9928408930728	98.4086453084963
83.5419025941931	94.8682610951955	90.8000435441667	98.4664376009548
84.7570475487436	92.5558440311881	90.599325564804	98.5163151766409
85.9898671936557	90.2744226326638	90.3909699103484	98.5585607727636
87.2406186132206	88.0258156575115	90.1752791005973	98.5934766956603
88.5095626311066	85.8116480579881	89.9525715753171	98.6213811761572
89.7969638647499	83.6333462120094	89.7231780410557	98.6426047162107
91.1030907805353	81.4921365254301	89.4874378941129	98.6574865117101
92.4282157497818	79.3890471246922	89.245695793281	98.6663710250539
93.7726151055401	77.3249122954351	88.9982984430761	98.6696047682198
95.1365692002177	75.3003792811031	88.7455916345414	98.6675333434099
96.5203624640417	73.3159170350004	88.4879175771386	98.660498774787
97.9242834643725	71.3718265172773	88.2256125423883	98.6488371519623
99.3486249658787	69.4682521419429	87.9590048282866	98.632876594263
100.79368399159	67.6051940048159	87.6884130434364	98.6129355347166
102.259761884834	65.7825205579506	87.4141447014694	98.5893213143275
103.747164372081	63.9999814362758	87.1364951097396	98.5623290706293
105.256201626691	62.2572201851711	86.8557465313901	98.5322408996112
106.787188333603	60.5537866810786	86.5721675965875	98.4993252668146
108.340443754951	58.8891490791736	86.2860129367971	98.4638366414728
109.916291796647	57.2627051612133	85.9975230152287	98.426015326823
111.51506107592	55.6737929920515	85.7069241267886	98.386087459926
113.137084989848	54.1217008244101	85.4144285418205	98.344265155277
114.78270178488	52.6056762181458	85.1202347694066	98.3007467679779
116.452254627375	51.1249343624772	84.824527917859	98.2557172541021
118.14609167516	49.6786656076723	84.5274801321126	98.2093486079607
119.864566150135	48.2660422268761	84.2292510899126	98.1618003581663
121.608036411929	46.8862244395101	83.9299885408848	98.1132201065796
123.376866032635	45.5383657354303	83.6298288747028	98.0637440963547
125.171423872622	44.2216175442489	83.3288977065855	98.0134977973152
126.992084157456	42.9351332973352	83.0273104702228	97.9625964987601
128.83922655594	41.6780719314072	82.7251730099336	97.9111459015019
130.713236259288	40.4496008826654	82.4225821653807	97.859242702463
132.614504061447	39.2488986194206	82.1196263435181	97.8069751665049
134.543426440594	38.0751567593925	81.8163860736227	97.7544236813421
136.500405641815	36.9275818155261	81.5129345422747	97.7016612924059
138.485849760983	35.8053966114871	81.209338106019	97.6487542153886
140.500172829864	34.7078414050848	80.9056567801641	97.5957623249257
142.543794902454	33.6341747548714	80.6019447027832	97.5427396184809
144.617142142576	32.5836741621526	80.2982505734801	97.4897346549954
146.720646912747	31.5556365176934	79.9946180668838	97.4367909682665
148.854747864343	30.5493783795689	79.6910862211603	97.3839474553423
151.019890029071	29.5642361059136	79.3876898020782	97.3312387404708
153.216524911772	28.5995658638011	79.0844596433607	97.278695515335
155.445110584577	27.6547435331392	78.7814229641959	97.2263448564451
157.70611178243	26.7291645223123	78.4786036648796	97.1742105206639
160	25.8222435103242	78.1760226016321	97.1223132199047
162.327253590004	24.933414128405	77.8736978416667	97.0706708760805
164.688357862959	24.062128592426	77.571644899608	97.019298857402
167.083805188386	23.2078572960088	77.2698769563511	96.968210197116
169.514095097487	22.3700883729103	76.9684050614428	96.9174157957643
171.979734387311	21.5483272361068	76.6672383200347	96.866924608014
174.481237226441	20.7420960999616	76.3663840654278	96.8167438150774
177.019125262213	19.9509334909525	76.0658480181842	96.7668789836986
179.5939277295	19.1743937516244	75.7656344327416	96.7173342126404
182.206181561071	18.4120465417258	75.4657462324151	96.6681122675581
184.856431499564	17.6634763398623	75.1661851336273	96.6192147050992
187.54523021108	16.9282819484604	74.8669517601559	96.5706419870195
190.273138400435	16.2060760043553	74.5680457481433	96.5223935850589
193.040724928083	15.4964844969069	74.2694658425629	96.474468077272
195.848566928745	14.7991462951902	73.9712099857929	96.4268632364649
198.697249931757	14.1137126854939	73.673275398905	96.379576111344
201.58736798318	13.4398469200985	73.3756586562323	96.3326031009416
204.519523769669	12.7772237780737	73.0783557537404	96.2859400228439
207.494328744162	12.1255291386388	72.7813621716908	96.239582175706
210.512403253382	11.4844595674643	72.4846729320454	96.1935243965091
213.574376667206	10.8537219161504	72.1882826510328	96.1477611129728
216.680887509903	10.2330329349982	71.8921855872597	96.1022863915135
219.832583593294	9.62211889908823	71.5963756857282	96.0570939811027
223.03012215184	9.02071524759995	71.3008466180851	96.0121773533564
226.274169979695	8.42856623623289	71.0055918194107	95.9675297391592
229.56540356976	7.84542460253542	70.7106045218254	95.9231441621041
232.90450925475	7.27105124390067	70.4158777851734	95.8790134690054
236.29218335032	6.70521490795169	70.1214045250233	95.8351303577247
239.729132300269	6.14769189500961	69.8271775382018	95.7914874025272
243.216072823858	5.59826577231621	69.5331895260664	95.7480770771719
246.753732065271	5.05672709966619	69.2394331156998	95.7048917759204
250.342847745244	4.52287316609253	68.9459008791988	95.6619238326362
253.984168314912	3.9965077372419	68.6525853512149	95.6191655381308
257.678453111881	3.4774408130731	68.3594790448913	95.5766091559016
261.426472518576	2.96548839550996	68.0665744663288	95.5342469363954
265.229008122894	2.4604722656834	67.773864127704	95.4920711299183
269.086852881189	1.96221977039972	67.4813405591519	95.4500739983054
273.00081128363	1.4705636174778	67.1889963195165	95.4082478254539
276.971699521966	0.985341679605439	66.8968240060644	95.3665849268131
281.000345659728	0.506396806371615	66.604816263249	95.3250776579207
285.087589804909	0.0335766441408842	66.3129657906056	95.2837184220642
289.234284285152	-0.433266536554839	66.0212653498519	95.2424996771409
293.441293825495	-0.894276006422236	65.7297077712607	95.2014139417858
297.709495728687	-1.34959073591563	65.4382859593684	95.1604538008286
302.039780058142	-1.79934554714339	65.1469928980762	95.1196119101363
306.433049823544	-2.24367125945658	64.8558216551963	95.0788810008963
310.890221169154	-2.68269482899402	64.564765386493	95.0382538833859
315.41222356486	-3.11653948244735	64.2738173392619	94.997723450274
320	-3.54532484529966	63.9829708554889	94.9572826794954
324.654507180007	-3.96916706478175	63.6922193746263	94.9169246367354
