Frequency [Hz]	Impedance Phase [deg]	Impedance Magnitude [ohm]
5	18.0644638648261	5.78276218666023
5.07272667468762	18.3157305428063	5.79264743804464
5.14651118321746	18.570444946462	5.80282449526136
5.22136891213707	18.8286522947276	5.81330304468624
5.29731547179648	19.0903983195657	5.82409314530729
5.37436669960348	19.3557292679175	5.83520524599533
5.45253866332629	19.6246919033644	5.84665020374864
5.53184766444417	19.8973335074713	5.85843930297676
5.61231024154687	20.173701880778	5.87058427589391
5.69394317378346	20.4538453434036	5.88309732409774
5.77676348436136	20.7378127352217	5.89599114141529
5.86078844409626	21.0256534155652	5.90927893810433
5.9460355750136	21.3174172624106	5.92297446650559
6.03252265400261	21.6131546709899	5.93709204824889
6.12026771652328	21.9129165517716	5.95164660312478
6.20928906036742	22.2167543277471	5.96665367974243
6.29960524947437	22.5247199309524	5.98212948810463
6.39123511780215	22.8368657981474	5.99809093424183
6.48419777325505	23.1532448655685	6.01455565705915
6.57851260166819	23.4739105626594	6.03154206756361
6.67419927085017	23.7989168046797	6.0490693906535
6.77127773468446	24.1283179840747	6.06715770966741
6.86976823729045	24.4621689604839	6.08582801390857
6.969691317245	24.8005250492485	6.10510224937897
7.07106781186548	25.143442008267	6.12500337297941
7.173918861555	25.4909760230305	6.14555541045496
7.27826591421094	25.8431836896519	6.16678351839134
7.3841307296975	26.2001219956859	6.18871405059635
7.49153538438341	26.5618482985123	6.21137462923237
7.60050227574557	26.928420301032	6.23479422110098
7.7110541270397	27.2998960244018	6.25900321951981
7.82321399203887	27.6763337774977	6.28403353227512
7.937005259841	28.0577921227711	6.30991867618168
8.05245165974627	28.4443298381192	6.33669387883517
8.1695772662055	28.8360058743538	6.36439618820208
8.28840650384044	29.2328793078043	6.39306459075885
8.40896415253714	29.6350092875413	6.4227401389663
8.53127535261343	30.0424549766472	6.4534660889492
8.65536561006143	30.4552754868984	6.48528804934379
8.7812608018665	30.873529806149	6.51825414238158
8.90898718140339	31.2972767176246	6.55241517839501
9.03857138391101	31.7265747102442	6.58782484506386
9.17004043204671	32.161481878984	6.62453991287059
9.30342174152147	32.6020558141788	6.66262045840192
9.43874312681693	33.0483534785276	6.70213010732495
9.57603280698574	33.5004310704168	6.74313629908302
9.71531941153606	33.9583438720069	6.7857105756019
9.85663198640188	34.4221460803361	6.82992889657669
10	34.8918906194723	6.87587198422803
10.1454533493752	35.3676289314977	6.92362570077973
10.2930223664349	35.8494107438217	6.97328146232527
10.4427378242741	36.3372838099918	7.02493669322691
10.594630943593	36.8312936207975	7.07869532573767
10.748733399207	37.3314830820274	7.13466835016558
10.9050773266526	37.8378921547466	7.19297442162498
11.0636953288883	38.350557453384	7.25374053025799
11.2246204830937	38.869511796257	7.31710274278067
11.3878863475669	39.3947837023867	7.38320702433649
11.5535269687227	39.9263968275643	7.45221015095272
11.7215768881925	40.4643693315787	7.52428072442861
11.8920711500272	41.0087131672933	7.5996003032781
12.0650453080052	41.5594332808271	7.67836466545534
12.2405354330466	42.1165267104007	7.76078522106931
12.4185781207348	42.679981569422	7.8470905962193
12.5992104989487	43.2497758970226	7.93752841254651
12.7824702356043	43.8258763564574	8.03236729121156
12.9683955465101	44.4082367584376	8.13189911491128
13.1570252033364	44.9967963824775	8.23644158741178
13.3483985417003	45.5914780645371	8.3463411371128
13.5425554693689	46.1921860134651	8.46197621963549
13.7395364745809	46.7988033117547	8.58376108467738
13.93938263449	47.4111890476262	8.71215008482434
14.142135623731	48.0291750150821	8.84764261918427
14.34783772311	48.6525619058629	8.99078882328825
14.5565318284219	49.281114901574	9.14219613956259
14.768261459395	49.9145585548599	9.30253693092586
14.9830707687668	50.5525708243765	9.4725573351555
15.2010045514911	51.1947760981196	9.65308760148268
15.4221082540794	51.8407370016758	9.84505420587699
15.6464279840777	52.4899447398726	10.0494941109285
15.874010519682	53.1418076590345	10.2675716244392
16.1049033194925	53.7956376384964	10.5005984235725
16.339154532411	54.4506338185782	10.7500574564551
16.5768130076809	55.1058630402722	11.0176316210317
16.8179283050743	55.7602361989169	11.3052383661934
17.0625507052269	56.4124794855093	11.6150716826774
17.3107312201229	57.0610991845127	11.9496533787524
17.562521603733	57.7043382869086	12.3118961073325
17.8179743628068	58.340122619999	12.7051813823756
18.077142767822	58.9659934303997	13.13345687283
18.3400808640934	59.5790222945247	13.6013587074125
18.6068434830429	60.1757027387568	14.1143665324353
18.8774862536339	60.7518108286607	14.6790018888374
19.1520656139715	61.3022239252433	15.3030844904304
19.4306388230721	61.8206823269609	15.9960667655588
19.7132639728038	62.2994718594642	16.7694754484687
20	62.7289954162552	17.6375014409681
20.2909066987505	63.0971859801063	18.6177977517324
20.5860447328698	63.3886893947189	19.7325734395869
20.8854756485483	63.5837063407053	21.0101144706248
21.1892618871859	63.6563195306717	22.4869285584577
21.4974667984139	63.5720261498952	24.2108128544765
21.8101546533052	63.2840145808222	26.2452975594962
22.1273906577767	62.727409135591	28.6761403942968
22.4492409661875	61.8101491491619	31.6208195353426
22.7757726951338	60.3981830108602	35.2421229602195
23.1070539374455	58.2909756861672	39.7661637595954
23.443153776385	55.1808597676868	45.5003449913654
23.7841423000544	50.588319233758	52.8266396469245
24.1300906160104	43.7771399762766	62.0736421622197
24.4810708660931	33.7332798613149	72.9719534618664
24.8371562414697	19.5758780629582	83.2412502445237
25.1984209978975	1.9972243634703	87.625946785316
25.5649404712086	-15.6374232446271	82.5767472470371
25.9367910930202	-29.8922019707447	71.683853106401
26.3140504066728	-39.9838807906047	60.2926828549887
26.6967970834007	-46.7686842636482	50.7018097590115
27.0851109387379	-51.2676340584211	43.146048356485
27.4790729491618	-54.2276113533468	37.2590438841256
27.87876526898	-56.1359513103766	32.6319607420907
28.2842712474619	-57.3053515954321	28.940296206444
28.69567544622	-57.9395423982975	25.9472879941786
29.1130636568437	-58.1746642844104	23.4834510506391
29.53652291879	-58.1042103933449	21.4270058545483
29.9661415375336	-57.794096677035	19.6893641732021
30.4020091029823	-57.2919377911073	18.205087797844
30.8442165081588	-56.6328945322081	16.9250642688648
31.2928559681555	-55.8434529485918	15.8118607340971
31.748021039364	-54.9439263242218	14.8365290393365
32.2098066389851	-53.9501494942408	13.9763791587585
32.678309064822	-52.8746503917607	13.2134046982864
33.1536260153617	-51.7274757306504	12.5331530440629
33.6358566101486	-50.5167831406368	11.9239029482694
34.1251014104537	-49.2492725844917	11.3760577162537
34.6214624402457	-47.9305052268472	10.8816917114134
35.125043207466	-46.5651422081584	10.4342073590646
35.6359487256136	-45.1571255687698	10.0280728131977
36.154285535644	-43.7098168176754	9.65861922307817
36.6801617281868	-42.2261041021032	9.32188254290095
37.2136869660859	-40.7084858351653	9.01447899251172
37.7549725072677	-39.1591364922063	8.73350620092741
38.3041312279429	-37.5799587795194	8.47646414123024
38.8612776461442	-35.9726253079581	8.24119145742147
39.4265279456075	-34.3386121337941	8.02581386728313
40	-32.6792259694671	7.82870212020811
40.581813397501	-30.9956264561152	7.64843757793859
41.1720894657397	-29.288844585616	7.48378392670884
41.7709512970966	-27.5597981328431	7.33366386188018
42.3785237743718	-25.8093047881914	7.19713983953903
42.9949335968278	-24.0380935514251	7.07339818434842
43.6203093066103	-22.2468148499813	6.96173599416679
44.2547813155533	-20.4360497703902	6.86155040053777
44.8984819323749	-18.6063187348846	6.77232983822357
45.5515453902677	-16.7580899125208	6.69364705257789
46.2141078748909	-14.8917876222143	6.62515363534257
46.88630755277	-13.0078009618432	6.56657593096585
47.5682846001088	-11.1064928813813	6.51771219959102
48.2601812320209	-9.18820990777833	6.47843096173893
48.9621417321862	-7.25329272424308	6.44867048534835
49.6743124829394	-5.30208780628431	6.42843940997561
50.3968419957949	-3.33496032121549	6.41781853724254
51.1298809424172	-1.35230850704711	6.41696385274494
51.8735821860404	0.645420238592442	6.42611088443604
52.6281008133455	2.65771130753519	6.44558054812211
53.3935941668014	4.68396258644284	6.47578668475947
54.1702218774757	6.7234615959178	6.51724556002185
54.9581458983236	8.7753596849178	6.57058767840528
55.75753053796	10.8386428254046	6.63657236764071
56.5685424949238	12.9120984466457	6.7161057220682
57.39135089244	14.9942776026159	6.81026266637392
58.2261273136875	17.083451563048	6.92031412820754
59.07304583758	19.177561635387	7.04776060996788
59.9322830750673	21.2741606276331	7.19437385515927
60.8040182059646	23.3703438024289	7.36224885420556
61.6884330163176	25.4626663803678	7.55386918780271
62.585711936311	27.5470435218499	7.77218974964161
63.496042078728	29.6186270975318	8.02074235331692
64.4196132779702	31.6716512138322	8.3037718035476
65.356618129644	33.6992350324091	8.62641299308499
66.3072520307235	35.6931263473255	8.99492392641504
67.2717132202972	37.6433617602896	9.4169959766851
68.2502028209074	39.5378076552082	9.90217227311336
69.2429248804914	41.3615280752217	10.4624196887991
70.250086414932	43.0958968915636	11.1129223657757
71.2718974512271	44.7173250893146	11.8731998290761
72.3085710712881	46.1953966953157	12.768708251603
73.3603234563737	47.4900753641411	13.8331717224438
74.4273739321717	48.547414267955	15.1120300650076
75.5099450145355	49.2927923398177	16.667603891278
76.6082624558859	49.619954692882	18.5868734292992
77.7225552922885	49.3727719544058	20.9930370307463
78.853055891215	48.3142160835845	24.0616121367293
80	46.0733568877835	28.0378861702405
81.1636267950019	42.0590850555564	33.2334847467225
82.3441789314794	35.3502959198735	39.9056697024712
83.5419025941931	24.7166714894411	47.7138410808577
84.7570475487436	9.39990412563399	54.4089588550458
85.9898671936557	-8.78908424046239	55.8005039058611
87.2406186132206	-25.3501855543318	50.8961009021756
88.5095626311066	-37.45398342691	43.5028125814359
89.7969638647499	-45.3546658359319	36.6711193252974
91.1030907805353	-50.2855289558067	31.2106873018969
92.4282157497818	-53.2741292146511	26.9992382644873
93.7726151055401	-54.9949747992872	23.7447429255039
95.1365692002177	-55.8704742972656	21.194158627001
96.5203624640417	-56.1676034993225	19.1610410384362
97.9242834643725	-56.0595809540866	17.5132784204293
99.3486249658787	-55.6621963830388	16.1574188374947
100.79368399159	-55.055103292814	15.026588571144
102.259761884834	-54.2945375885232	14.0721543587791
103.747164372081	-53.4211193989821	13.2581337671507
105.256201626691	-52.4647755402819	12.5574524502953
106.787188333603	-51.4479314208964	11.9494133569124
108.340443754951	-50.3876345805946	11.4179608840735
109.916291796647	-49.29700132035	10.9504713344052
111.51506107592	-48.1862238295861	10.5368965419688
113.137084989848	-47.0632853886917	10.1691480787871
114.78270178488	-45.9344775476188	9.8406478839274
116.452254627375	-44.8047803420215	9.54599576340607
118.14609167516	-43.6781460650936	9.2807201583008
119.864566150135	-42.5577139911545	9.04108905915309
121.608036411929	-41.4459749005597	8.82396493043224
123.376866032635	-40.3448985873515	8.62669223116433
125.171423872622	-39.2560337078095	8.44700935425407
126.992084157456	-38.1805867082404	8.28297905454633
128.83922655594	-37.1194847484917	8.13293301621581
130.713236259288	-36.0734262530977	7.99542733493569
132.614504061447	-35.0429218043905	7.86920649995125
134.543426440594	-34.0283274283942	7.7531740502648
136.500405641815	-33.0298718389674	7.64636851208952
138.485849760983	-32.0476788467149	7.5479435459956
140.500172829864	-31.08178587098	7.45715147273215
142.543794902454	-30.1321592908376	7.37332952838968
144.617142142576	-29.1987072168648	7.29588833790002
146.720646912747	-28.2812901470155	7.22430220200999
148.854747864343	-27.3797298781565	7.15810087490171
151.019890029071	-26.493816973146	7.09686257348045
153.216524911772	-25.623317026936	7.04020800937064
155.445110584577	-24.7679759304913	6.98779527409533
157.70611178243	-23.9275242956624	6.93931543918814
160	-23.10168117553	6.89448875793119
162.327253590004	-22.2901571916225	6.85306137541612
164.688357862959	-21.4926571606442	6.81480246975061
167.083805188386	-20.7088822980292	6.7795017602953
169.514095097487	-19.9385320630687	6.7469673294487
171.979734387311	-19.18130570001	6.71702371319058
174.481237226441	-18.4369035209542	6.68951022273342
177.019125262213	-17.7050279692624	6.66427946551778
179.5939277295	-16.9853844962493	6.64119603866098
182.206181561071	-16.2776822789731	6.62013537201848
184.856431499564	-15.5816348027681	6.60098270139544
187.54523021108	-14.8969603286553	6.58363215527386
190.273138400435	-14.2233822628082	6.56798594079528
193.040724928083	-13.5606294427442	6.55395361674075
195.848566928745	-12.9084363527867	6.54145144294104
198.697249931757	-12.2665432795402	6.53040179698438
201.58736798318	-11.6346964165771	6.52073265030883
204.519523769669	-11.0126479262279	6.51237709680588
207.494328744162	-10.4001559652414	6.50527292795173
210.512403253382	-9.79698468012306	6.49936224924415
213.574376667206	-9.20290417713609	6.49459113337895
216.680887509903	-8.61769047124398	6.49090930616357
219.832583593294	-8.04112541766592	6.48826986165356
223.03012215184	-7.4729966291955	6.48662900341923
226.274169979695	-6.91309738198256	6.48594580921575
229.56540356976	-6.36122651209214	6.48618201664853
232.90450925475	-5.81718830481993	6.48730182770253
236.29218335032	-5.28079237845617	6.48927173024646
239.729132300269	-4.7518535639413	6.49206033483429
243.216072823858	-4.23019178164222	6.49563822531203
246.753732065271	-3.71563191629287	6.49997782190061
250.342847745244	-3.20800369098263	6.50505325556886
253.984168314912	-2.70714154093828	6.5108402526367
257.678453111881	-2.21288448772592	6.51731602866022
261.426472518576	-1.72507601439555	6.52445919074845
265.229008122894	-1.24356394200369	6.53224964754902
269.086852881189	-0.768200307871435	6.54066852621704
273.00081128363	-0.298841245869738	6.54969809575033
276.971699521966	0.164653131032411	6.55932169613491
281.000345659728	0.622418845771023	6.56952367279929
285.087589804909	1.07458816959687	6.5802893159245
289.234284285152	1.52128973178326	6.59160480420003
293.441293825495	1.96264862655421	6.60345715265477
297.709495728687	2.39878651718148	6.61583416422659
302.039780058142	2.82982173722068	6.6287243847653
306.433049823544	3.25586938887646	6.6421170611919
310.890221169154	3.67704143850184	6.65600210256168
315.41222356486	4.09344680925066	6.67037004380188
320	4.50519147091278	6.6852120119145
324.654507180007	4.91237852697173	6.70051969445343
329.376715725918	5.31510829893086	6.71628531010176
334.167610376772	5.71347840796142	6.73250158118973
339.028190194974	6.10758385393011	6.74916170800794
343.959468774623	6.49751709186781	6.76625934478198
348.962474452882	6.88336810594402	6.78378857718659
354.038250524427	7.26522448101385	6.80174390128682
359.187855458999	7.64317147180577	6.82012020380343
364.412363122141	8.01729206981893	6.83891274360784
369.712862999127	8.3876670680003	6.85811713435949
375.090460422161	8.75437512327037	6.87772932820566
380.546276800871	9.11749281696718	6.89774560046991
386.081449856167	9.47709471327712	6.91816253526111
391.69713385749	9.8332534157201	6.93897701194037
397.394499863515	10.1860396217559	6.96018619238788
403.174735966359	10.5355221755769	6.9817875090163
409.039047539338	10.8817681191514	7.00377865348099
414.988657488323	11.2248427415803	7.02615756604158
421.024806506764	11.5648096268268	7.04892242553228
427.148753334411	11.9017306998811	7.07207163990185
433.361775019806	12.2356662714147	7.09560383728668
439.665167186588	12.5666750809827	7.11951785758335
446.06024430368	12.8948143388275	7.14381274448924
452.54833995939	13.220139766336	7.16848773798213
459.13080713952	13.5427056352021	7.19354226721173
465.8090185095	13.8625648053436	7.21897594377796
472.58436670064	14.1797687616195	7.24478855537257
479.458264600538	14.4943676493963	7.2709800597623
486.432145647717	14.8064103090047	7.29755057909332
493.507464130541	15.115944309131	7.32450039449793
500.685695490488	15.423015979184	7.35182994098593
507.968336629824	15.7276704406763	7.37953980260415
515.356906223761	16.0299516376589	7.40763070784883
522.852945037152	16.3299023662449	7.43610352531632
530.458016245788	16.6275643032583	7.46495925957886
538.173705762377	16.9229780340405	7.49419904727272
546.001622567259	17.216183079449	7.5238241533871
553.943399043932	17.5072179220766	7.55383596774261
562.000691319456	17.7961200317245	7.58423600164922
570.175179609817	18.0829258901549	7.61502588473389
578.468568570305	18.3676710151529	7.64620736192887
586.88258765099	18.6503899839228	7.67778229061225
595.418991457374	18.9311164558454	7.70975263789272
604.079560116284	19.2098831946195	7.7421204780311
612.866099647087	19.4867220898115	7.77488798999161
621.780442338308	19.7616641778356	7.80805745511637
630.82444712972	20.034739662386	7.84163125491682
640	20.3059779343405	7.87561186897629
649.309014360015	20.5754075911577	7.91000187295829
658.753431451835	20.8430564557837	7.9448039367153
668.335220753545	21.1089515950881	7.98002082249323
678.056380389949	21.3731193378466	8.01565538322705
687.918937549246	21.6355852922853	8.05171056092312
697.924948905765	21.8963743632043	8.08818938512445
708.076501048853	22.1555107686941	8.12509497145471
718.375710917999	22.4130180564605	8.16243052023776
728.824726244283	22.6689191197704	8.20019931518898
739.425725998255	22.9232362130339	8.23840472217547
750.180920844321	23.1759909670325	8.27705018804188
761.092553601741	23.4272044038074	8.31613923949913
772.162899712334	23.6768969512196	8.35567548207333
783.39426771498	23.9250884571907	8.39566259911227
794.78899972703	24.1717982036372	8.43610435084719
806.349471932719	24.4170449201072	8.47700457350742
818.078095078676	24.6608467971288	8.5183671784859
829.977314976646	24.90322149928	8.5601961515534
842.049613013528	25.1441861779888	8.6024955521196
854.297506668822	25.3837574840705	8.64526951253922
866.723550039611	25.6219515800123	8.68852223746139
879.330334373177	25.8587841520104	8.7322580032208
892.12048860736	26.0942704217688	8.77648115726885
905.096679918781	26.3284251580648	8.82119611764359
918.26161427904	26.5612626880894	8.86640737247688
931.618037019	26.7927969085678	8.91211947953761
945.16873340128	27.0230412966654	8.95833706580956
958.916529201076	27.2520089206869	9.0050648271029
972.864291295434	27.4797124505716	9.05230752769819
987.014928261082	27.7061641681913	9.10007000002161
1001.37139098098	27.931375977455	9.14835714435083
1015.93667325965	28.1553594142262	9.1971739285501
1030.71381244752	28.3781256560549	9.24652538783407
1045.7058900743	28.5996855317311	9.29641662455921
1060.91603249158	28.8200495306618	9.34685280804215
1076.34741152475	29.039227812076	9.39783917440415
1092.00324513452	29.2572302140618	9.44938102644097
1107.88679808786	29.4740662624377	9.50148373351746
1124.00138263891	29.6897451794624	9.5541527314861
1140.35035921963	29.9042758923863	9.60739352262917
1156.93713714061	30.1176670418466	9.66121167562356
1173.76517530198	30.3299269901095	9.71561282552796
1190.83798291475	30.5410638291624	9.77060267379181
1208.15912023257	30.7510853886578	9.82618698828544
1225.73219929417	30.9599992437124	9.88237160335103
1243.56088467662	31.1678127225624	9.93916241987383
1261.64889425944	31.3745329140782	9.99656540537334
1280	31.5801666751405	10.0545865941139
1298.61802872003	31.7847206378792	10.1132320872342
