Frequency [Hz]	Total Phase [deg]	Total SPL 2pi [dB]
5	168.069576470706	45.2736036955052
5.07272667468762	168.143005450563	45.5207094245482
5.14651118321746	168.21414016	45.7679357512595
5.22136891213707	168.282987320954	46.015279968015
5.29731547179648	168.349553463539	46.2627394478099
5.37436669960348	168.413844915	46.5103116429767
5.45253866332629	168.47586778897	46.7579940839219
5.53184766444417	168.535627975042	47.0057843778828
5.61231024154687	168.593131128633	47.2536802077045
5.69394317378346	168.648382661113	47.5016793306385
5.77676348436136	168.701387730199	47.7497795771643
5.86078844409626	168.752151230599	47.9979788498346
5.9460355750136	168.800677784872	48.2462751221438
6.03252265400261	168.846971734523	48.4946664374229
6.12026771652328	168.891037131278	48.7431509077585
6.20928906036742	168.932877728564	48.9917267129394
6.29960524947437	168.972496973154	49.2403920994286
6.39123511780215	169.009897996967	49.4891453793638
6.48419777325505	169.045083609022	49.7379849295847
6.57851260166819	169.07805628752	49.9869091906887
6.67419927085017	169.10881817204	50.2359166661148
6.77127773468446	169.137371055845	50.4850059212563
6.86976823729045	169.163716378277	50.7341755826027
6.969691317245	169.18785521723	50.9834243369105
7.07106781186548	169.209788281687	51.2327509304031
7.173918861555	169.229515904308	51.4821541680012
7.27826591421094	169.24703803406	51.7316329125816
7.3841307296975	169.262354228868	51.981186084267
7.49153538438341	169.275463648282	52.2308126597448
7.60050227574557	169.28636504614	52.4805116716161
7.7110541270397	169.295056763221	52.7302822077745
7.82321399203887	169.301536719872	52.980123410815
7.937005259841	169.305802408587	53.2300344774728
8.05245165974627	169.307850886547	53.4800146580913
8.1695772662055	169.307678768083	53.7300632561209
8.28840650384044	169.305282217065	53.9801796276467
8.40896415253714	169.300656939198	54.2303631809458
8.53127535261343	169.293798174214	54.4806133760747
8.65536561006143	169.284700687939	54.7309297244849
8.7812608018665	169.273358764235	54.9813117886686
8.90898718140339	169.259766196789	55.2317591818331
9.03857138391101	169.243916280741	55.482271567603
9.17004043204671	169.225801804145	55.7328486597525
9.30342174152147	169.205415039225	55.9834902219644
9.43874312681693	169.182747733442	56.234196067618
9.57603280698574	169.157791100327	56.484966059604
9.71531941153606	169.130535810092	56.7358001101676
9.85663198640188	169.100971979976	56.9866981807774
10	169.069089164335	57.2376602820219
10.1454533493752	169.03487634444	57.4886864735317
10.2930223664349	168.998321917978	57.7397768639276
10.4427378242741	168.959413688231	57.9909316107938
10.594630943593	168.918138852922	58.2421509206763
10.748733399207	168.874483992701	58.493435049105
10.9050773266526	168.828435059262	58.7447843006396
11.0636953288883	168.77997736306	58.9961990289389
11.2246204830937	168.729095560617	59.247679636852
11.3878863475669	168.67577364139	59.499226576531
11.5535269687227	168.619994914188	59.7508403495649
11.7215768881925	168.561741993098	60.0025215071336
11.8920711500272	168.500996782918	60.2542706501796
12.0650453080052	168.437740464058	60.5060884296001
12.2405354330466	168.371953476889	60.7579755464534
12.4185781207348	168.303615505516	61.0099327521833
12.5992104989487	168.232705460944	61.2619608488568
12.7824702356043	168.159201463609	61.5140606894156
12.9683955465101	168.083080825253	61.766233177939
13.1570252033364	168.004320030102	62.0184792699174
13.3483985417003	167.92289471532	62.270799972534
13.5425554693689	167.838779650712	62.5231963449534
13.7395364745809	167.751948717629	62.7756694986147
13.93938263449	167.662374887058	63.0282205975274
14.142135623731	167.57003019684	63.2808508585675
14.34783772311	167.474885727997	63.5335615517711
14.5565318284219	167.376911580108	63.7863540006239
14.768261459395	167.276076845718	64.0392295823417
14.9830707687668	167.17234958371	64.2921897281411
15.2010045514911	167.065696791614	64.5452359234952
15.4221082540794	166.956084376802	64.7983697083715
15.6464279840777	166.843477126508	65.0515926774475
15.874010519682	166.727838676648	65.3049064803009
16.1049033194925	166.609131479361	65.5583128215683
16.339154532411	166.487316769226	65.811813461068
16.5768130076809	166.362354528108	66.0654102138821
16.8179283050743	166.234203448554	66.3191049503911
17.0625507052269	166.102820895692	66.5728995962557
17.3107312201229	165.968162867562	66.8267961323383
17.562521603733	165.830183953818	67.0807965945571
17.8179743628068	165.68883729271	67.3349030736648
18.077142767822	165.544074526313	67.5891177149442
18.3400808640934	165.395845753883	67.8434427178102
18.6068434830429	165.24409948329	68.0978803353094
18.8774862536339	165.088782580443	68.3524328735055
19.1520656139715	164.929840216606	68.6071026907407
19.4306388230721	164.767215813539	68.8618921967583
19.7132639728038	164.600850986352	69.1168038516752
20	164.430685483999	69.3718401647888
20.2909066987505	164.256657127287	69.6270036932021
20.5860447328698	164.078701744327	69.8822970402518
20.8854756485483	163.896753103302	70.1377228537193
21.1892618871859	163.710742842446	70.3932838238066
21.4974667984139	163.520600397136	70.6489826808548
21.8101546533052	163.32625292396	70.9048221927829
22.1273906577767	163.127625221663	71.160805162222
22.4492409661875	162.924639648835	71.4169344233187
22.7757726951338	162.717216038218	71.6732128381793
23.1070539374455	162.505271607513	71.9296432929225
23.443153776385	162.288720866541	72.1862286933096
23.7841423000544	162.067475520639	72.4429719599144
24.1300906160104	161.841444370143	72.6998760227948
24.4810708660931	161.610533205833	72.9569438156253
24.8371562414697	161.374644700186	73.2141782692439
25.1984209978975	161.133678294313	73.4715823045669
25.5649404712086	160.887530080428	73.7291588248171
25.9367910930202	160.63609267972	73.9869107070126
26.3140504066728	160.379255115481	74.2448407926521
26.6967970834007	160.116902681365	74.5029518775348
27.0851109387379	159.848916804639	74.7612467006426
27.4790729491618	159.575174904311	75.019727932011
27.87876526898	159.295550244005	75.2783981595057
28.2842712474619	159.00991177949	75.5372598744202
28.69567544622	158.718124000752	75.7963154557975
29.1130636568437	158.420046768529	76.0555671533783
29.53652291879	158.115535145257	76.3150170690648
29.9661415375336	157.804439220353	76.5746671367855
30.4020091029823	157.486603929846	76.8345191006354
30.8442165081588	157.161868870335	77.0945744911579
31.2928559681555	156.83006810733	77.3548345996248
31.748021039364	156.491029978047	77.6153004501604
32.2098066389851	156.144576888781	77.8759727695463
32.678309064822	155.790525107036	78.1368519545282
33.1536260153617	155.428684548643	78.3979380364401
33.6358566101486	155.058858560163	78.659230642942
34.1251014104537	154.680843696979	78.9207289566584
34.6214624402457	154.294429497516	79.1824316704903
35.125043207466	153.899398254193	79.4443369393567
35.6359487256136	153.495524781781	79.7064423281098
36.154285535644	153.082576183987	79.9687447553509
36.6801617281868	152.660311619244	80.2312404328591
37.2136869660859	152.228482066838	80.4939248003286
37.7549725072677	151.786830094703	80.7567924550957
38.3041312279429	151.335089630411	81.0198370765196
38.8612776461442	150.872985737157	81.283051344667
39.4265279456075	150.400234396759	81.5464268529359
40	149.916542302027	81.8099540142404
40.581813397501	149.42160666116	82.0736219603666
41.1720894657397	148.915115017224	82.3374184341001
41.7709512970966	148.396745086134	82.6013296737203
42.3785237743718	147.866164617047	82.8653402894494
42.9949335968278	147.323031279536	83.1294331314502
43.6203093066103	146.766992582482	83.3935891489679
44.2547813155533	146.197685830185	83.6577872402289
44.8984819323749	145.614738121863	83.9220040927266
45.5515453902677	145.017766401377	84.1862140135559
46.2141078748909	144.406377564795	84.4503887495012
46.88630755277	143.780168634187	84.7144972966348
47.5682846001088	143.138727006908	84.9785056992546
48.2601812320209	142.481630790528	85.2423768380773
48.9621417321862	141.808449234492	85.5060702077138
49.6743124829394	141.118743270583	85.7695416835836
50.3968419957949	140.412066175242	86.0327432785867
51.1298809424172	139.687964367792	86.2956228900392
51.8735821860404	138.945978359607	86.558124037605
52.6281008133455	138.185643870166	86.8201855932133
53.3935941668014	137.406493126824	87.0817415042559
54.1702218774757	136.608056365841	87.3427205117047
54.9581458983236	135.789863552789	87.6030458651798
55.75753053796	134.951446340823	87.8626350374457
56.5685424949238	134.092340285312	88.1213994413042
57.39135089244	133.212087333086	88.3792441523981
58.2261273136875	132.310238603713	88.6360676420358
59.07304583758	131.386357478993	88.8917615247875
59.9322830750673	130.440023014816	89.1462103262839
60.8040182059646	129.470833686872	89.39929127736
61.6884330163176	128.478411478042	89.6508741414147
62.585711936311	127.462406310755	89.9008210825831
63.496042078728	126.422500821876	90.1489865830197
64.4196132779702	125.358415470815	90.3952174182415
65.356618129644	124.269913963443	90.6393527000405
66.3072520307235	123.15680896492	90.8812239969069
67.2717132202972	122.018968063876	91.1206555421676
68.2502028209074	120.856319938408	91.3574645400739
69.2429248804914	119.668860661394	91.59146157983
70.250086414932	118.456660068729	91.8224511669711
71.2718974512271	117.21986809975	92.0502323805286
72.3085710712881	115.958721004639	92.2745996630094
73.3603234563737	114.673547299621	92.4953437483199
74.4273739321717	113.364773337871	92.7122527303722
75.5099450145355	112.032928353085	92.9251132721868
76.6082624558859	110.678648824323	93.1337119519043
77.7225552922885	109.30268200602	93.3378367382523
78.853055891215	107.905888466731	93.5372785837919
80	106.489243485088	93.7318331197925
81.1636267950019	105.053837162194	93.9213024320157
82.3441789314794	103.600873126805	94.1054968922154
83.5419025941931	102.131665733239	94.2842370159951
84.7570475487436	100.647635681889	94.4573553140428
85.9898671936557	99.1503040279568	94.6246981009147
87.2406186132206	97.6412845845632	94.7861272236943
88.5095626311066	96.1222747704011	94.9415216722038
89.7969638647499	94.5950449978531	95.0907790331345
91.1030907805353	93.0614267429687	95.2338167525751
92.4282157497818	91.5232994817628	95.3705731749606
93.7726151055401	89.9825767157518	95.5010083313581
95.1365692002177	88.4411913414436	95.6251044560853
96.5203624640417	86.9010806418932	95.7428662176914
97.9242834643725	85.3641711920883	95.8543206579984
99.3486249658787	83.8323639730636	95.959516840869
100.79368399159	82.3075199820646	96.058525220255
102.259761884834	80.7914466082444	96.1514367445243
103.747164372081	79.2858850162891	96.2383617207334
105.256201626691	77.7924987455588	96.3194284681257
106.787188333603	76.3128636917007	96.3947817944782
108.340443754951	74.8484595933471	96.4645813318742
109.916291796647	73.4006631006674	96.5289997699919
111.51506107592	71.9707424572859	96.5882210251171
113.137084989848	70.5598537843237	96.6424383819214
114.78270178488	69.1690389166334	96.6918526427531
116.452254627375	67.7992247078928	96.7366703159971
118.14609167516	66.451223693873	96.7771018711761
119.864566150135	65.1257359823115	96.8133600841478
121.608036411929	63.82335222339	96.8456584912138
123.376866032635	62.5445575065678	96.874209966405
125.171423872622	61.2897360268799	96.8992254318231
126.992084157456	60.0591763660751	96.9209127068301
128.83922655594	58.853077240297	96.9394754981985
130.713236259288	57.6715535755441	96.9551125301266
132.614504061447	56.5146427840246	96.9680168103238
134.543426440594	55.382311127944	96.9783750261827
136.500405641815	54.274460071525	96.9863670633673
138.485849760983	53.1909325365406	96.9921656379247
140.500172829864	52.1315189908395	96.9959360322247
142.543794902454	51.0959633128812	96.9978359245959
144.617142142576	50.0839683878781	96.998015302406
146.720646912747	49.0952014025791	96.9966164484688
148.854747864343	48.1292988159144	96.9937739909956
151.019890029071	47.1858709916107	96.9896150078039
153.216524911772	46.2645064864902	96.9842591760956
155.445110584577	45.3647759945365	96.9778189597952
157.70611178243	44.4862359520328	96.9703998271508
160	43.6284318132434	96.9621004920339
162.327253590004	42.7909010093286	96.9530131730912
164.688357862959	41.9731756055838	96.9432238656091
167.083805188386	41.174784673766	96.9328126216095
169.514095097487	40.3952563973414	96.9218538343225
171.979734387311	39.6341199280513	96.9104165237544
174.481237226441	38.8909070123379	96.8985646205943
177.019125262213	38.165153405986	96.8863572461737
179.5939277295	37.4564000948872	96.8738489866162
182.206181561071	36.7641943391897	96.8610901596883
184.856431499564	36.0880905573008	96.8481270731891
187.54523021108	35.4276510653238	96.8350022739992
190.273138400435	34.7824466865519	96.8217547871578
193.040724928083	34.1520572446562	96.8084203445419
195.848566928745	33.5360719532124	96.7950316029003
198.697249931757	32.9340897132191	96.7816183511437
201.58736798318	32.3457193293089	96.7682077069116
204.519523769669	31.770579654423	96.7548243025399
207.494328744162	31.208299671843	96.7414904606309
210.512403253382	30.6585185226411	96.7282263594933
213.574376667206	30.1208854858303	96.7150501887667
216.680887509903	29.5950599177696	96.7019782955823
219.832583593294	29.0807111567063	96.6890253216391
223.03012215184	28.5775183977179	96.6762043315907
226.274169979695	28.0851705427459	96.6635269331479
229.56540356976	27.6033660298926	96.651003389307
232.90450925475	27.1318126456822	96.6386427231125
236.29218335032	26.6702273235521	96.6264528153577
239.729132300269	26.2183359314543	96.6144404956193
243.216072823858	25.7758730510965	96.6026116270097
246.753732065271	25.342581751032	96.5909711850216
250.342847745244	24.918213355531	96.5795233308221
253.984168314912	24.5025272109035	96.5682714793408
257.678453111881	24.0952904507246	96.5572183624809
261.426472518576	23.6962777612066	96.5463660877665
265.229008122894	23.3052711477826	96.5357161927217
269.086852881189	22.922059703809	96.5252696952652
273.00081128363	22.5464393821496	96.5150271403853
276.971699521966	22.1782127702833	96.5049886433454
281.000345659728	21.8171888694629	96.4951539296579
285.087589804909	21.4631828783581	96.4855223720472
289.234284285152	21.1160159815326	96.4760930246111
293.441293825495	20.7755151430257	96.4668646543747
297.709495728687	20.4415129052502	96.4578357704219
302.039780058142	20.1138471933565	96.4490046507734
306.433049823544	19.7923611251685	96.4403693671726
310.890221169154	19.4769028267516	96.4319278079281
315.41222356486	19.167325253638	96.4236776989529
320	18.8634860177034	96.4156166231292
324.654507180007	18.5652472196632	96.4077420381208
329.376715725918	18.2724752871324	96.4000512927462
334.167610376772	17.985040818177	96.3925416420157
339.028190194974	17.7028184302666	96.3852102609326
343.959468774623	17.425686614527	96.3780542571476
348.962474452882	17.1535275951795	96.3710706825518
354.038250524427	16.8862271940478	96.3642565438866
359.187855458999	16.6236747000026	96.3576088124437
364.412363122141	16.3657627432148	96.3511244329224
369.712862999127	16.1123871740788	96.3448003315085
375.090460422161	15.8634469466709	96.3386334232317
380.546276800871	15.6188440066004	96.3326206186573
386.081449856167	15.3784831831165	96.326758829961
391.69713385749	15.1422720853307	96.3210449764352
397.394499863515	14.9101210024152	96.3154759894695
403.174735966359	14.6819428076436	96.310048817045
409.039047539338	14.457652866136	96.3047604277806
414.988657488323	14.2371689461775	96.2996078145665
421.024806506764	14.0204111339814	96.2945879978148
427.148753334411	13.8073017517676	96.2896980283598
433.361775019806	13.5977652790353	96.2849349900333
439.665167186588	13.3917282769073	96.2802960019422
446.06024430368	13.1891193154297	96.2757782204702
452.54833995939	12.9898689037133	96.2713788410286
459.13080713952	12.7939094228062	96.2670950995729
465.8090185095	12.6011750611902	96.2629242739068
472.58436670064	12.4116017527991	96.2588636847909
479.458264600538	12.2251271174575	96.2549106968697
486.432145647717	12.0416904036446	96.2510627194363
493.507464130541	11.8612324334903	96.247317207044
500.685695490488	11.6836955499126	96.2436716599816
507.968336629824	11.5090235658117	96.2401236246214
515.356906223761	11.3371617152359	96.2366706936535
522.852945037152	11.1680566064412	96.2333105062134
530.458016245788	11.0016561767655	96.2300407479165
538.173705762377	10.8379096492451	96.2268591508038
546.001622567259	10.676767490902	96.2237634932103
553.943399043932	10.518181372633	96.2207515995622
562.000691319456	10.3621041306362	96.2178213401092
570.175179609817	10.2084897293106	96.2149706305994
578.468568570305	10.0572932255698	96.2121974319026
586.88258765099	9.90847073451077	96.2094997495862
595.418991457374	9.76197939638262	96.2068756334503
604.079560116284	9.61777734480187	96.2043231770258
612.866099647087	9.47582367616317	96.2018405170395
621.780442338308	9.33607842019642	96.1994258328507
630.82444712972	9.19850251162339	96.1970773458632
640	9.06305776286867	96.1947933189147
649.309014360015	8.92970683778199	96.1925720556481
658.753431451835	8.7984132263304	96.1904118998668
668.335220753545	8.66914122022084	96.1883112348767
678.056380389949	8.54185588941504	96.1862684828172
687.918937549246	8.41652305950055	96.1842821039837
697.924948905765	8.29310928988286	96.1823505961432
708.076501048853	8.17158185276551	96.1804724938445
718.375710917999	8.05190871288603	96.1786463677264
728.824726244283	7.93405850797731	96.1768708238229
739.425725998255	7.81800052992488	96.1751445028685
750.180920844321	7.70370470659229	96.1734660796047
761.092553601741	7.59114158428749	96.171834262088
772.162899712334	7.48028231084457	96.1702477910014
783.39426771498	7.37109861929625	96.1687054389697
794.78899972703	7.26356281211342	96.1672060098797
806.349471932719	7.15764774598911	96.1657483382063
818.078095078676	7.05332681714543	96.1643312883442
829.977314976646	6.95057394714243	96.1629537539474
842.049613013528	6.84936356916926	96.1616146572754
854.297506668822	6.74967061479844	96.1603129485478
866.723550039611	6.65147050118524	96.1590476053071
879.330334373177	6.55473911869435	96.1578176317902
892.12048860736	6.45945281893746	96.1566220583089
905.096679918781	6.36558840320555	96.1554599406399
918.26161427904	6.27312311128058	96.1543303594241
931.618037019	6.18203461061184	96.1532324195761
945.16873340128	6.09230098584295	96.1521652497032
958.916529201076	6.0039007286759	96.1511280015345
972.864291295434	5.91681272805931	96.1501198493602
987.014928261082	5.83101626068841	96.1491399894816
1001.37139098098	5.74649098180489	96.1481876396703
1015.93667325965	5.66321691628526	96.1472620386392
1030.71381244752	5.58117445000683	96.1463624455222
1045.7058900743	5.50034432148068	96.1454881393655
1060.91603249158	5.42070761374184	96.1446384186287
1076.34741152475	5.34224574648684	96.1438126006957
1092.00324513452	5.26494046844959	96.1430100213968
1107.88679808786	5.18877385000656	96.14223003454
1124.00138263891	5.113728276003	96.1414720114524
1140.35035921963	5.03978643879187	96.1407353405326
1156.93713714061	4.96693133147779	96.1400194268114
1173.76517530198	4.89514624135862	96.1393236915231
1190.83798291475	4.82441474355717	96.1386475716867
1208.15912023257	4.75472069483655	96.137990519696
1225.73219929417	4.68604822759237	96.1373520029189
1243.56088467662	4.61838174401538	96.1367315033069
1261.64889425944	4.55170591041861	96.1361285170128
1280	4.48600565172313	96.1355425540176
1298.61802872003	4.4212661460968	96.1349731377665
1317.50686290367	4.35747281974065	96.134419804813
1336.67044150709	4.29461134181772	96.1338821044725
1356.1127607799	4.23266761951949	96.133359598483
