Frequency [Hz]	Impedance Phase [deg]	Impedance Magnitude [ohm]
5	4.4428952664091	5.5370526651126
5.07272667468762	4.49990713696256	5.53824797841136
5.14651118321746	4.55767951122184	5.53946284781486
5.22136891213707	4.61622255065579	5.54069768476739
5.29731547179648	4.67554655935797	5.5419529109084
5.37436669960348	4.7356619862206	5.54322895835929
5.45253866332629	4.79657942715263	5.54452627001901
5.53184766444417	4.85830962734321	5.54584529986878
5.61231024154687	4.9208634835721	5.54718651328621
5.69394317378346	4.98425204656844	5.54855038736921
5.77676348436136	5.04848652341936	5.54993741127005
5.86078844409626	5.11357828003012	5.55134808653986
5.9460355750136	5.17953884363738	5.55278292748401
6.03252265400261	5.2463799053774	5.55424246152876
6.12026771652328	5.31411332291083	5.55572722959955
6.20928906036742	5.38275112310618	5.55723778651141
6.29960524947437	5.45230550478375	5.55877470137193
6.39123511780215	5.52278884152221	5.5603385579972
6.48419777325505	5.59421368452983	5.5619299553413
6.57851260166819	5.66659276558273	5.56354950793976
6.67419927085017	5.73993900003228	5.56519784636757
6.77127773468446	5.81426548988435	5.56687561771234
6.86976823729045	5.8895855269526	5.56858348606305
6.969691317245	5.96591259608874	5.57032213301515
7.07106781186548	6.04326037849238	5.57209225819255
7.173918861555	6.12164275510325	5.5738945797872
7.27826591421094	6.20107381007902	5.57572983511697
7.3841307296975	6.2815678343616	5.57759878120248
7.49153538438341	6.3631393293354	5.57950219536376
7.60050227574557	6.44580301058078	5.58144087583741
7.7110541270397	6.52957381172631	5.58341564241518
7.82321399203887	6.61446688840365	5.58542733710488
7.937005259841	6.7004976223088	5.58747682481438
8.05245165974627	6.78768162537379	5.5895649940598
8.1695772662055	6.8760347440531	5.5916927576989
8.28840650384044	6.96557306372922	5.59386105369065
8.40896415253714	7.05631291324189	5.59607084588213
8.53127535261343	7.14827086954592	5.59832312482395
8.65536561006143	7.24146376250261	5.60061890861535
8.7812608018665	7.33590867981	5.60295924378041
8.90898718140339	7.43162297207746	5.60534520617652
9.03857138391101	7.52862425805037	5.6077779019367
9.17004043204671	7.62693042999095	5.61025846844723
9.30342174152147	7.72655965922131	5.61278807536209
9.43874312681693	7.82753040183549	5.61536792565602
9.57603280698574	7.92986140458728	5.61799925671775
9.71531941153606	8.03357171096087	5.62068334148545
9.85663198640188	8.13868066743184	5.6234214896262
10	8.24520792992646	5.62621504876157
10.1454533493752	8.35317347048715	5.62906540574146
10.2930223664349	8.462597584153	5.6319739879685
10.4427378242741	8.57350089606386	5.63494226477544
10.594630943593	8.68590436879771	5.6379717488579
10.748733399207	8.79982930995072	5.64106399776543
10.9050773266526	8.91529737997037	5.64422061545346
11.0636953288883	9.03233060025215	5.64744325389929
11.2246204830937	9.15095136151109	5.65073361478526
11.3878863475669	9.27118243243946	5.65409345125228
11.5535269687227	9.39304696866315	5.65752456972758
11.7215768881925	9.51656852200904	5.66102883183013
11.8920711500272	9.64177105009685	5.66460815635784
12.0650453080052	9.76867892626929	5.66826452136076
12.2405354330466	9.89731694987479	5.67199996630463
12.4185781207348	10.0277103569182	5.67581659432965
12.5992104989487	10.1598848310952	5.67971657460937
12.7824702356043	10.2938665152264	5.68370214481507
12.9683955465101	10.4296820231096	5.68777561369121
13.1570252033364	10.5673584518069	5.6919393637481
13.3483985417003	10.7069233943858	5.69619585407798
13.5425554693689	10.8484049531351	5.70054762330139
13.7395364745809	10.9918317532747	5.70499729265099
13.93938263449	11.1372329571806	5.70954756920051
14.142135623731	11.28463827915	5.71420124924699
14.34783772311	11.4340780007258	5.71896122185493
14.5565318284219	11.5855829866094	5.72383047257168
14.768261459395	11.7391847011835	5.72881208732383
14.9830707687668	11.8949152256739	5.73390925650525
15.2010045514911	12.0528072759773	5.73912527926775
15.4221082540794	12.2128942211839	5.74446356802661
15.6464279840777	12.3752101028254	5.74992765319348
15.874010519682	12.53978965488	5.75552118815046
16.1049033194925	12.7066683245664	5.76124795447987
16.339154532411	12.8758822939634	5.76711186746532
16.5768130076809	13.0474685024877	5.77311698188067
16.8179283050743	13.2214646702697	5.77926749808487
17.0625507052269	13.3979093224658	5.7855677684417
17.3107312201229	13.5768418145459	5.79202230408478
17.562521603733	13.7583023586008	5.79863578205008
17.8179743628068	13.9423320507113	5.80541305279915
18.077142767822	14.1289728994262	5.81235914815859
18.3400808640934	14.3182678553949	5.81947928970267
18.6068434830429	14.5102608422057	5.82677889760847
18.8774862536339	14.7049967884804	5.83426360001464
19.1520656139715	14.9025216612777	5.84193924291765
19.4306388230721	15.1028825008617	5.8498119006417
19.7132639728038	15.306127456892	5.85788788692141
20	15.5123058260952	5.86617376663928
20.2909066987505	15.7214680914788	5.87467636826343
20.5860447328698	15.9336659631515	5.88340279703443
20.8854756485483	16.1489524208143	5.89236044895421
21.1892618871859	16.3673817579923	5.90155702563403
21.4974667984139	16.5890096280743	5.91100055006336
21.8101546533052	16.8138930922336	5.92069938336633
22.1273906577767	17.0420906693041	5.93066224261813
22.4492409661875	17.2736623876856	5.94089821979957
22.7757726951338	17.5086698393565	5.95141680197491
23.1070539374455	17.7471762360745	5.96222789278474
23.443153776385	17.9892464678418	5.97334183535423
23.7841423000544	18.2349471637212	5.98476943672524
24.1300906160104	18.4843467550813	5.99652199393041
24.4810708660931	18.7375155413574	6.00861132183802
24.8371562414697	18.9945257584088	6.02104978290739
25.1984209978975	19.2554516495578	6.03385031900772
25.5649404712086	19.5203695393912	6.04702648546682
25.9367910930202	19.7893579104056	6.06059248753161
26.3140504066728	20.062497482576	6.07456321943919
26.6967970834007	20.3398712959217	6.08895430631591
27.0851109387379	20.6215647961417	6.10378214914253
27.4790729491618	20.9076659233859	6.11906397304637
27.87876526898	21.1982652042203	6.1348178792068
28.2842712474619	21.4934558468369	6.15106290068829
28.69567544622	21.7933338395499	6.16781906254666
29.1130636568437	22.0979980526041	6.18510744658876
29.53652291879	22.407550343309	6.20295026120433
29.9661415375336	22.7220956644932	6.22137091673211
30.4020091029823	23.0417421762517	6.24039410686997
30.8442165081588	23.3666013609338	6.26004589669281
31.2928559681555	23.6967881412901	6.28035381790183
31.748021039364	24.0324210016596	6.30134697199622
32.2098066389851	24.3736221120407	6.32305614213372
32.678309064822	24.720517454838	6.34551391453144
33.1536260153617	25.0732369540234	6.36875481035372
33.6358566101486	25.4319146063843	6.3928154291414
34.1251014104537	25.7966886144561	6.41773460495839
34.6214624402457	26.1677015206481	6.44355357656856
35.125043207466	26.5451003419709	6.47031617311148
35.6359487256136	26.9290367046562	6.49806901692185
36.154285535644	27.3196669778207	6.52686174533753
36.6801617281868	27.7171524051729	6.55674725356944
37.2136869660859	28.1216592335731	6.58778196096596
37.7549725072677	28.5333588370515	6.620026103302
38.3041312279429	28.9524278346393	6.6535440540623
38.8612776461442	29.3790482000905	6.68840467807857
39.4265279456075	29.8134073612385	6.72468172132801
40	30.2556982863591	6.7624542412169
40.581813397501	30.706119554466	6.80180708226831
41.1720894657397	31.1648754059613	6.84283140282223
41.7709512970966	31.632175769467	6.8856252591556
42.3785237743718	32.1082362599825	6.93029425435853
42.9949335968278	32.5932781427108	6.97695226038578
43.6203093066103	33.0875282559708	7.02572222296772
44.2547813155533	33.5912188855259	7.07673706054703
44.8984819323749	34.104587581399	7.13014067014942
45.5515453902677	34.6278769067629	7.18608905514873
46.2141078748909	35.1613341067603	7.24475159231259
46.88630755277	35.7052106830761	7.30631245839146
47.5682846001088	36.2597618576857	7.37097223993521
48.2601812320209	36.8252459063756	7.43894975410582
48.9621417321862	37.4019233392882	7.51048411314716
49.6743124829394	37.9900559017677	7.58583707105494
50.3968419957949	38.5899053640524	7.66529569808938
51.1298809424172	39.2017320627018	7.74917543737583
51.8735821860404	39.8257931498547	7.83782360830725
52.6281008133455	40.4623404982301	7.93162343425668
53.3935941668014	41.1116181998655	8.03099868781687
54.1702218774757	41.7738595845211	8.13641906616371
54.9581458983236	42.4492836689052	8.24840643316824
55.75753053796	43.1380909296984	8.36754209483047
56.5685424949238	43.8404582708279	8.49447531214206
57.39135089244	44.5565330273689	8.62993330279833
58.2261273136875	45.2864258131862	8.7747330431859
59.07304583758	46.030201974827	8.92979525866325
59.9322830750673	46.7878713573002	9.0961610885774
60.8040182059646	47.559376014254	9.27501203984796
61.6884330163176	48.344575400217	9.4676940090726
62.585711936311	49.1432284584163	9.67574637147964
63.496042078728	49.954971853579	9.90093742454758
64.4196132779702	50.7792933799999	10.1453078613593
65.356618129644	51.6154992794109	10.4112244717481
66.3072520307235	52.4626737995048	10.7014469828437
67.2717132202972	53.3196287663426	11.0192119348362
68.2502028209074	54.1848401638368	11.3683388612049
69.2429248804914	55.0563676075899	11.7533659833433
70.250086414932	55.9317510098308	12.1797254087587
71.2718974512271	56.8078764092507	12.6539718601292
72.3085710712881	57.6807994903414	13.1840849218316
73.3603234563737	58.5455101027401	13.7798737346825
74.4273739321717	59.3956130538868	14.4535267408383
75.5099450145355	60.222887792699	15.2203703953838
76.6082624558859	61.0166692023905	16.0999347146289
77.7225552922885	61.7629579788974	17.1174788951016
78.853055891215	62.4431116435336	18.3062228230318
80	63.0318663432754	19.7106893948501
81.1636267950019	63.4942559448755	21.3918439782794
82.3441789314794	63.7806472122349	23.4352301153756
83.5419025941931	63.8184220086995	25.9642619886434
84.7570475487436	63.4974097820009	29.1626770398648
85.9898671936557	62.6430554459279	33.3136882912871
87.2406186132206	60.9641573738951	38.8697069650351
88.5095626311066	57.9451239315543	46.5738795209216
89.7969638647499	52.6150388077956	57.6315065189209
91.1030907805353	43.0819335311543	73.6234265187828
92.4282157497818	26.107264184348	93.8945977931606
93.7726151055401	0.206367647296781	105.528749301129
95.1365692002177	-25.7311370910564	93.1870523847463
96.5203624640417	-42.7286490558605	72.4163858787555
97.9242834643725	-52.216447408783	56.1520788312704
99.3486249658787	-57.4424253641681	44.9535154460833
100.79368399159	-60.3102553062173	37.1749756513854
102.259761884834	-61.7976654752086	31.5796588299378
103.747164372081	-62.4244395844739	27.4093546725892
105.256201626691	-62.4848506350533	24.204039641318
106.787188333603	-62.1560743955528	21.676386540987
108.340443754951	-61.5507353336354	19.6402844126335
109.916291796647	-60.7438548631846	17.9708638529435
111.51506107592	-59.7874601775272	16.5816369584088
113.137084989848	-58.7189088079707	15.4109918853457
114.78270178488	-57.5658440426996	14.4139404025528
116.452254627375	-56.3492592232845	13.5569117399041
118.14609167516	-55.0854567769051	12.8143707960154
119.864566150135	-53.7873380208699	12.1665625465563
121.608036411929	-52.4652750232899	11.5979713443322
123.376866032635	-51.1277142805356	11.0962457101616
125.171423872622	-49.7816041589291	10.6514333053406
126.992084157456	-48.4327040539382	10.2554269773655
128.83922655594	-47.0858126475074	9.90155720430002
130.713236259288	-45.7449398678344	9.58428786143562
132.614504061447	-44.4134390356105	9.29898607712908
134.543426440594	-43.0941104123433	9.04174599565165
136.500405641815	-41.789283885723	8.80925229193804
138.485849760983	-40.5008861908354	8.59867336494766
140.500172829864	-39.2304964766492	8.40757694424751
142.543794902454	-37.9793929334728	8.23386280409308
144.617142142576	-36.7485924372166	8.07570866540126
146.720646912747	-35.5388846342554	7.9315263587216
148.854747864343	-34.3508615157424	7.79992604055926
151.019890029071	-33.18494326454	7.67968678218341
153.216524911772	-32.0414009687217	7.56973223978991
155.445110584577	-30.9203766601742	7.46911040597839
157.70611178243	-29.8219010393171	7.37697666186242
160	-28.7459091762332	7.29257951582768
162.327253590004	-27.6922544266904	7.21524854263888
164.688357862959	-26.6607207630864	7.14438413513766
167.083805188386	-25.6510336913205	7.07944875736769
169.514095097487	-24.6628699022247	7.01995944790389
171.979734387311	-23.6958657885158	6.9654813693753
174.481237226441	-22.7496249438966	6.91562223759038
177.019125262213	-21.823724748988	6.87002749350603
179.5939277295	-20.9177221385588	6.82837610520333
182.206181561071	-20.0311586355979	6.7903769063178
184.856431499564	-19.163564729818	6.75576539300266
187.54523021108	-18.3144636710164	6.72430091423527
190.273138400435	-17.4833747411794	6.6957642006983
193.040724928083	-16.6698160632284	6.66995518603747
195.848566928745	-15.8733069988012	6.64669108137711
198.697249931757	-15.0933701823862	6.62580466984808
201.58736798318	-14.3295332344637	6.60714279277572
204.519523769669	-13.5813301920171	6.59056500326778
207.494328744162	-12.8483026908406	6.57594236637833
210.512403253382	-12.1300009304712	6.56315638791903
213.574376667206	-11.4259844492854	6.55209805643772
216.680887509903	-10.7358227343122	6.54266698496151
219.832583593294	-10.0590956876	6.53477064087003
223.03012215184	-9.39539396852059	6.52832365377453
226.274169979695	-8.74431922917661	6.52324719257106
229.56540356976	-8.10548425808661	6.51946840394684
232.90450925475	-7.47851304552886	6.5169199055746
236.29218335032	-6.86304078232245	6.51553932805546
239.729132300269	-6.25871380238981	6.51526890038495
243.216072823858	-5.66518947816669	6.51605507433673
246.753732065271	-5.08213607678687	6.51784818369709
250.342847745244	-4.50923258395816	6.52060213475311
253.984168314912	-3.9461685015497	6.52427412484683
257.678453111881	-3.39264362411713	6.52882438616687
261.426472518576	-2.84836779889028	6.53421595226291
265.229008122894	-2.31306067313073	6.54041444504473
269.086852881189	-1.78645143222059	6.54738788027028
273.00081128363	-1.26827853136534	6.55510648974121
276.971699521966	-0.758289423373442	6.5635425586134
281.000345659728	-0.256240284606266	6.57267027639662
285.087589804909	0.238104259130334	6.58246560036583
289.234284285152	0.724971405262687	6.59290613023729
293.441293825495	1.20458044445028	6.60397099307938
297.709495728687	1.67714302688064	6.61564073753127
302.039780058142	2.14286342401278	6.62789723649512
306.433049823544	2.60193878508571	6.64072359754927
310.890221169154	3.0545593878468	6.65410408040356
315.41222356486	3.50090888307526	6.66802402078331
320	3.94116453257878	6.68246976018712
324.654507180007	4.37549744043062	6.69742858101646
329.376715725918	4.80407277728925	6.71288864662174
334.167610376772	5.2270499977075	6.72883894585231
339.028190194974	5.64458305039286	6.74526924173559
343.959468774623	6.05682058142627	6.76217002394475
348.962474452882	6.46390613048534	6.77953246474537
354.038250524427	6.8659783201504	6.79734837813915
359.187855458999	7.2631710383977	6.81561018194781
364.412363122141	7.65561361440586	6.83431086260302
369.712862999127	8.04343098781963	6.85344394242871
375.090460422161	8.42674387162748	6.87300344922046
380.546276800871	8.80566890882139	6.89298388794375
386.081449856167	9.18031882301482	6.91338021438774
391.69713385749	9.55080256319975	6.93418781062533
397.394499863515	9.91722544282858	6.95540246214248
403.174735966359	10.2796892734078	6.97702033651161
409.039047539338	10.6382924927911	6.99903796349369
414.988657488323	10.9931302883595	7.0214522164636
421.024806506764	11.3442947152745	7.04426029506158
427.148753334411	11.6918748099863	7.06745970898146
433.361775019806	12.0359566991791	7.09104826281374
439.665167186588	12.3766237043295	7.11502404186789
446.06024430368	12.7139564420503	7.1393853989041
452.54833995939	13.0480329203891	7.16413094171062
459.13080713952	13.3789286312443	7.18925952146726
465.8090185095	13.7067166390593	7.21477022184052
472.58436670064	14.0314676659463	7.24066234876001
479.458264600538	14.3532501733917	7.26693542082942
486.432145647717	14.6721304406848	7.29358916032909
493.507464130541	14.9881726402094	7.32062348477028
500.685695490488	15.3014389097331	7.34803849896428
507.968336629824	15.6119894218215	7.3758344875722
515.356906223761	15.9198824505027	7.40401190810383
522.852945037152	16.2251744353001	7.43257138433618
530.458016245788	16.5279200427488	7.46151370012461
538.173705762377	16.8281722255048	7.49083979358116
546.001622567259	17.1259822791523	7.52055075159674
553.943399043932	17.4213998968101	7.55064780468539
562.000691319456	17.7144732216339	7.58113232213033
570.175179609817	18.0052488973068	7.61200580741311
578.468568570305	18.2937721166058	7.64326989390813
586.88258765099	18.5800866681315	7.67492634082646
595.418991457374	18.8642349812782	7.70697702939374
604.079560116284	19.1462581695258	7.73942395924791
612.866099647087	19.4261960721246	7.77226924504376
621.780442338308	19.7040872942448	7.80551511325196
630.82444712972	19.9799692456592	7.83916389914104
640	20.253878178021	7.87321804393182
649.309014360015	20.5258492208015	7.90768009211414
658.753431451835	20.7959164159441	7.94255268891665
668.335220753545	21.0641127512914	7.97783857792097
678.056380389949	21.3304701928391	8.01354059881209
687.918937549246	21.5950197158682	8.04966168525731
697.924948905765	21.8577913350025	8.0862048629068
708.076501048853	22.1188141332402	8.12317324750892
718.375710917999	22.3781162900021	8.16057004313424
728.824726244283	22.635725108239	8.19839854050223
739.425725998255	22.8916670406391	8.23666211540549
750.180920844321	23.1459677149734	8.27536422722601
761.092553601741	23.3986519586156	8.31450841753897
772.162899712334	23.6497438222713	8.3540983087994
783.39426771498	23.8992666029503	8.39413760310762
794.78899972703	24.1472428662122	8.43463008104943
806.349471932719	24.3936944677178	8.47557960060729
818.078095078676	24.6386425741122	8.51699009613917
829.977314976646	24.8821076832691	8.55886557742162
842.049613013528	25.1241096439217	8.60121012875412
854.297506668822	25.3646676747043	8.64402790812177
866.723550039611	25.6038003826293	8.68732314641359
879.330334373177	25.8415257810211	8.73110014669395
892.12048860736	26.0778613069295	8.77536328352469
905.096679918781	26.3128238380413	8.82011700233566
918.26161427904	26.5464297091112	8.86536581884165
931.618037019	26.7786947279294	8.91111431850358
945.16873340128	27.0096341908439	8.95736715603221
958.916529201076	27.2392628978539	9.00412905493258
972.864291295434	27.4675951672906	9.0514048070874
987.014928261082	27.6946448501005	9.09919927237802
1001.37139098098	27.9204253437449	9.14751737834136
1015.93667325965	28.144949605731	9.19636411986146
1030.71381244752	28.3682301667851	9.2457445588944
1045.7058900743	28.5902791436835	9.29566382422525
1060.91603249158	28.8111082517491	9.34612711125602
1076.34741152475	29.0307288170294	9.39713968182337
1092.00324513452	29.2491517881621	9.44870686404522
1107.88679808786	29.4663877479422	9.50083405219518
1124.00138263891	29.6824469245975	9.55352670660385
1140.35035921963	29.8973392027842	9.60679035358628
1156.93713714061	30.1110741343087	9.66063058539467
1173.76517530198	30.3236609485866	9.71505306019548
1190.83798291475	30.535108562845	9.77006350207043
1208.15912023257	30.7454255920762	9.82566770104052
1225.73219929417	30.9546203587505	9.88187151311246
1243.56088467662	31.1627009022942	9.93868086034708
1261.64889425944	31.3696749883401	9.99610173094884
1280	31.575550117756	10.0541401793762
1298.61802872003	31.7803335354574	10.1128023264721
1317.50686290367	31.9840322390109	10.1720943596144
