Frequency [Hz]	Total Phase [deg]	Total SPL 2pi [dB]
5	162.616761448935	59.6786106410514
5.07272667468762	162.37180581158	59.9217768311157
5.14651118321746	162.123620178352	60.1647300645725
5.22136891213707	161.872171150899	60.4074647965471
5.29731547179648	161.617425366114	60.6499753572501
5.37436669960348	161.359349514329	60.8922559502371
5.45253866332629	161.097910358221	61.1343006507069
5.53184766444417	160.83307475243	61.3761034038423
5.61231024154687	160.564809663902	61.617658023198
5.69394317378346	160.293082192966	61.8589581891403
5.77676348436136	160.017859595152	62.0999974473451
5.86078844409626	159.739109303745	62.3407692073568
5.9460355750136	159.456798953106	62.5812667412168
6.03252265400261	159.170896402726	62.8214831821648
6.12026771652328	158.88136976205	63.0614115234194
6.20928906036742	158.588187416054	63.3010446170451
6.29960524947437	158.291318051566	63.5403751729103
6.39123511780215	157.99073068435	63.7793957577446
6.48419777325505	157.686394686929	64.0180987942993
6.57851260166819	157.378279817147	64.2564765606213
6.67419927085017	157.066356247459	64.4945211894442
6.77127773468446	156.750594594939	64.7322246677053
6.86976823729045	156.430965951992	64.9695788361959
6.969691317245	156.107441917753	65.2065753893503
7.07106781186548	155.779994630149	65.4432058751839
7.173918861555	155.448596798608	65.6794616953844
7.27826591421094	155.113221737394	65.9153341055668
7.3841307296975	154.77384339952	66.1508142156976
7.49153538438341	154.43043641124	66.3858929906968
7.60050227574557	154.08297610705	66.6205612512251
7.7110541270397	153.731438565188	66.854809674664
7.82321399203887	153.375800643579	67.0886287962953
7.937005259841	153.016040016179	67.3220090106893
8.05245165974627	152.652135209678	67.5549405733073
8.1695772662055	152.2840656405	67.7874136023258
8.28840650384044	151.911811652049	68.0194180806903
8.40896415253714	151.535354552146	68.2509438584039
8.53127535261343	151.154676650579	68.4819806550586
8.65536561006143	150.769761296715	68.7125180626144
8.7812608018665	150.380592917093	68.9425455484315
8.90898718140339	149.987157052924	69.1720524585627
9.03857138391101	149.589440397419	69.4010280213088
9.17004043204671	149.187430832866	69.6294613510429
9.30342174152147	148.781117467363	69.8573414523061
9.43874312681693	148.370490671123	70.0846572241792
9.57603280698574	147.955542112258	70.3113974649315
9.71531941153606	147.536264791934	70.5375508769496
9.85663198640188	147.112653078816	70.7631060719471
10	146.684702742682	70.9880515764544
10.1454533493752	146.252410987118	71.2123758375902
10.2930223664349	145.815776481166	71.436067229111
10.4427378242741	145.374799389845	71.6591140577371
10.594630943593	144.929481403397	71.8815045697525
10.748733399207	144.479825765182	72.1032269578724
10.9050773266526	144.025837298079	72.324269368375
11.0636953288883	143.567522429307	72.5446199084883
11.2246204830937	143.104889213524	72.7642666540275
11.3878863475669	142.637947354115	72.98319765727
11.5535269687227	142.166708222542	73.201400955062
11.7215768881925	141.691184875658	73.4188645771421
11.8920711500272	141.211392070859	73.6355765546711
12.0650453080052	140.727346278995	73.8515249289535
12.2405354330466	140.239065694904	74.0666977603356
12.4185781207348	139.746570245512	74.2810831372646
12.5992104989487	139.249881595363	74.4946691854906
12.7824702356043	138.749023149526	74.7074440773923
12.9683955465101	138.244020053779	74.9193960414081
13.1570252033364	137.734899191995	75.1305133715506
13.3483985417003	137.221689180672	75.340784436982
13.5425554693689	136.704420360535	75.5501976916284
13.7395364745809	136.18312478517	75.758741683809
13.93938263449	135.657836206635	75.9664050658541
14.142135623731	135.128590058024	76.1731766036874
14.34783772311	134.595423432965	76.3790451863458
14.5565318284219	134.058375062023	76.5839998354097
14.768261459395	133.517485286032	76.7880297143162
14.9830707687668	132.972796026344	76.9911241375273
15.2010045514911	132.424350752033	77.1932725795256
15.4221082540794	131.872194444087	77.3944646836075
15.6464279840777	131.316373556627	77.5946902704481
15.874010519682	130.75693597523	77.7939393464072
16.1049033194925	130.193930972413	77.9922021115494
16.339154532411	129.627409160378	78.1894689673518
16.5768130076809	129.05742244111	78.3857305240708
16.8179283050743	128.484023953941	78.5809776077421
17.0625507052269	127.907268020709	78.7752012667899
17.3107312201229	127.327210088644	78.9683927782187
17.562521603733	126.743906671137	79.1605436533668
17.8179743628068	126.157415286542	79.3516456431979
18.077142767822	125.567794395194	79.5416907431114
18.3400808640934	124.975103334819	79.7306711972519
18.6068434830429	124.379402254522	79.9185795023008
18.8774862536339	123.780752047571	80.1054084107361
19.1520656139715	123.179214283164	80.2911509335439
19.4306388230721	122.574851137409	80.4758003423742
19.7132639728038	121.967725323733	80.6593501711282
20	121.35790002295	80.8417942169727
20.2909066987505	120.74543881322	81.0231265407753
20.5860447328698	120.130405600123	81.2033414669588
20.8854756485483	119.512864547106	81.3824335827753
21.1892618871859	118.892880006512	81.5603977370001
21.4974667984139	118.270516451454	81.7372290380543
21.8101546533052	117.645838408754	81.9129228515587
22.1273906577767	117.018910393179	82.0874747973326
22.4492409661875	116.389796843214	82.2608807458475
22.7757726951338	115.758562058586	82.4331368141505
23.1070539374455	115.125270139761	82.6042393612748
23.443153776385	114.489984929616	82.774184983155
23.7841423000544	113.852769957507	82.9429705070701
24.1300906160104	113.213688385904	83.1105929856352
24.4810708660931	112.572802959791	83.2770496903695
24.8371562414697	111.930175958997	83.4423381048647
25.1984209978975	111.285869153611	83.6064559175855
25.5649404712086	110.63994376265	83.7694010143294
25.9367910930202	109.99246041608	83.9311714703806
26.3140504066728	109.343479120343	84.091765542388
26.6967970834007	108.693059227473	84.2511816600038
27.0851109387379	108.041259407899	84.4094184173162
27.4790729491618	107.388137627009	84.5664745641127
27.87876526898	106.733751125531	84.7223489970116
28.2842712474619	106.078156403785	84.877040750496
28.69567544622	105.421409209812	85.0305489878914
29.1130636568437	104.763564531414	85.1828729923212
29.53652291879	104.104676592086	85.3340121576795
29.9661415375336	103.444798850816	85.4839659796579
30.4020091029823	102.783984005735	85.6327340468641
30.8442165081588	102.122284001537	85.7803160320675
31.2928559681555	101.45975004063	85.9267116836092
31.748021039364	100.796432597907	86.0719208170107
32.2098066389851	100.132381439066	86.2159433068165
32.678309064822	99.4676456423474	86.3587790787017
33.1536260153617	98.802273623578	86.50042810188
33.6358566101486	98.1363131643735	86.6408903818394
34.1251014104537	97.4698114433572	86.7801659534372
34.6214624402457	96.8028150702309	86.9182548743811
35.125043207466	96.1353701225234	87.0551572191228
35.6359487256136	95.4675221848374	87.1908730731888
36.154285535644	94.7993163903999	87.3254025279701
36.6801617281868	94.1307974647171	87.4587456759932
37.2136869660859	93.462009771124	87.5909026066893
37.7549725072677	92.7929973580131	87.7218734026801
38.3041312279429	92.1238040075204	87.8516581365937
38.8612776461442	91.4544732854414	87.9802568684242
39.4265279456075	90.7850485921441	88.1076696434446
40	90.1155732142443	88.2338964906817
40.581813397501	89.4460903768051	88.3589374219592
41.1720894657397	88.7766432958187	88.4827924315115
41.7709512970966	88.1072752307299	88.6054614961723
42.3785237743718	87.4380295367605	88.7269445761339
42.9949335968278	86.7689497167923	88.8472416162773
43.6203093066103	86.1000794725706	88.9663525480658
44.2547813155533	85.4314627549902	89.0842772919955
44.8984819323749	84.7631438132327	89.201015760593
45.5515453902677	84.0951672425233	89.3165678619482
46.2141078748909	83.4275780302849	89.4309335037683
46.88630755277	82.7604216004715	89.5441125979372
47.5682846001088	82.0937438558677	89.6561050655616
48.2601812320209	81.4275912181534	89.7669108424841
48.9621417321862	80.7620106655363	89.8765298852418
49.6743124829394	80.097049767767	89.984962177445
50.3968419957949	79.4327567183609	90.0922077365529
51.1298809424172	78.7691803638604	90.1982666210157
51.8735821860404	78.1063702299851	90.3031389377585
52.6281008133455	77.4443765445263	90.4068248499721
53.3935941668014	76.7832502568584	90.5093245851835
54.1702218774757	76.1230430539491	90.6106384435698
54.9581458983236	75.4638073727683	90.7107668064839
55.75753053796	74.8055964090074	90.809710145156
56.5685424949238	74.1484641220344	90.907469029535
57.39135089244	73.4924652360299	91.0040441372345
58.2261273136875	72.8376552372585	91.0994362625456
59.07304583758	72.1840903674518	91.1936463254794
59.9322830750673	71.5318276132893	91.2866753808017
60.8040182059646	70.8809246919863	91.3785246270219
61.6884330163176	70.2314400330057	91.4691954153003
62.585711936311	69.5834327559356	91.5586892582341
63.496042078728	68.9369626445832	91.6470078384872
64.4196132779702	68.2920901173549	91.7341530172266
65.356618129644	67.6488761940085	91.8201268423314
66.3072520307235	67.0073824588757	91.9049315563373
67.2717132202972	66.3676710206704	91.9885696040867
68.2502028209074	65.7298044690117	92.0710436400492
69.2429248804914	65.0938458278032	92.1523565352831
70.250086414932	64.459858505625	92.2325113840089
71.2718974512271	63.8279062433051	92.3115115097668
72.3085710712881	63.1980530588492	92.3893604711321
73.3603234563737	62.5703631899196	92.4660620669654
74.4273739321717	61.9449010340602	92.5416203411758
75.5099450145355	61.3217310868772	92.616039586976
76.6082624558859	60.7009178783897	92.6893243506134
77.7225552922885	60.0825259077727	92.7614794345619
78.853055891215	59.4666195767181	92.8325099001596
80	58.8532631216477	92.9024210696846
81.1636267950019	58.2425205450101	92.9712185278583
82.3441789314794	57.6344555458995	93.0389081227723
83.5419025941931	57.0291314502327	93.1054959662345
84.7570475487436	56.4266111407216	93.1709884335342
85.9898671936557	55.8269569868762	93.2353921626274
87.2406186132206	55.2302307752703	93.2987140527462
88.5095626311066	54.6364936402987	93.3609612624391
89.7969638647499	54.0458059956499	93.4221412070493
91.1030907805353	53.4582274667126	93.4822615556435
92.4282157497818	52.8738168241249	93.5413302274019
93.7726151055401	52.2926319186732	93.5993553874859
95.1365692002177	51.7147296177317	93.6563454423985
96.5203624640417	51.1401657434305	93.7123090348565
97.9242834643725	50.5689950127256	93.7672550381945
99.3486249658787	50.001270979537	93.8211925503214
100.79368399159	49.4370459791059	93.8741308872529
102.259761884834	48.8763710747146	93.9260795762437
103.747164372081	48.3192960068968	93.977048348544
105.256201626691	47.7658691452553	94.0270471318069
106.787188333603	47.216137442991	94.076086042173
108.340443754951	46.6701463942356	94.1241753760596
109.916291796647	46.1279399942644	94.1713256016827
111.51506107592	45.5895607026554	94.2175473503386
113.137084989848	45.0550494094476	94.2628514074757
114.78270178488	44.5244454043379	94.3072487035821
116.452254627375	43.9977863489442	94.3507503049197
118.14609167516	43.4751082521493	94.3933674041307
119.864566150135	42.9564454485306	94.4351113107463
121.608036411929	42.4418305798662	94.4759934416222
123.376866032635	41.9312945796994	94.5160253113306
125.171423872622	41.4248666609323	94.5552185225316
126.992084157456	40.9225743064083	94.5935847563515
128.83922655594	40.4244432624371	94.6311357627907
130.713236259288	39.9304975352027	94.6678833511859
132.614504061447	39.4407593899901	94.7038393807479
134.543426440594	38.9552493531585	94.7390157511973
136.500405641815	38.4739862167791	94.773424393517
138.485849760983	37.9969870458546	94.8070772608425
140.500172829864	37.5242671880262	94.8399863195058
142.543794902454	37.0558402856733	94.8721635402515
144.617142142576	36.5917182903051	94.9036208896389
146.720646912747	36.1319114791396	94.9343703216456
148.854747864343	35.676428473763	94.9644237694854
151.019890029071	35.2252762607597	94.9937931376512
153.216524911772	34.7784602142024	95.022490294195
155.445110584577	34.3359841198879	95.0505270632537
157.70611178243	33.8978502012076	95.0779152178281
160	33.4640591465365	95.1046664728237
162.327253590004	33.0346101380301	95.1307924783578
164.688357862959	32.6095008817139	95.1563048133386
167.083805188386	32.188727638757	95.1812149793196
169.514095097487	31.772285257816	95.2055343946326
171.979734387311	31.3601672083458	95.2292743887994
174.481237226441	30.9523656147671	95.2524461972265
177.019125262213	30.5488712913896	95.2750609561789
179.5939277295	30.1496737779899	95.2971296980347
182.206181561071	29.7547613759457	95.3186633468181
184.856431499564	29.3641211848327	95.3396727140089
187.54523021108	28.977739139392	95.3601684946246
190.273138400435	28.5956000467815	95.3801612635728
193.040724928083	28.2176876240259	95.3996614722686
195.848566928745	27.8439845355864	95.4186794455131
198.697249931757	27.4744724309727	95.4372253786271
201.58736798318	27.1091319823243	95.4553093348356
204.519523769669	26.7479429218931	95.4729412428958
207.494328744162	26.3908840793615	95.4901308949628
210.512403253382	26.0379334189355	95.5068879446874
213.574376667206	25.6890680761551	95.5232219055372
216.680887509903	25.3442643943684	95.5391421493356
219.832583593294	25.00349796082	95.5546579050112
223.03012215184	24.6667436423071	95.5697782575494
226.274169979695	24.3339756203614	95.5845121471396
229.56540356976	24.0051674259173	95.5988683685101
232.90450925475	23.6802919734301	95.6128555704433
236.29218335032	23.3593215944144	95.6264822554633
239.729132300269	23.0422280703697	95.6397567796888
243.216072823858	22.7289826650713	95.6526873528433
246.753732065271	22.4195561561998	95.665282038415
250.342847745244	22.1139188662914	95.6775487539597
253.984168314912	21.8120406929907	95.6894952715389
257.678453111881	21.5138911385904	95.7011292182853
261.426472518576	21.2194393388463	95.7124580770901
265.229008122894	20.9286540910571	95.7234891874032
269.086852881189	20.6415038814012	95.7342297461419
273.00081128363	20.3579569115241	95.7446868086986
276.971699521966	20.0779811243735	95.7548672900436
281.000345659728	19.801544229279	95.7647779659154
285.087589804909	19.5286137262768	95.774425474092
289.234284285152	19.2591569296802	95.7838163157389
293.441293825495	18.9931409908991	95.7929568568261
297.709495728687	18.7305329205122	95.8018533296097
302.039780058142	18.471299609598	95.8105118341733
306.433049823544	18.2154078503301	95.8189383400218
310.890221169154	17.9628243558456	95.8271386877258
315.41222356486	17.7135157793949	95.8351185906086
320	17.4674487327822	95.8428836364742
324.654507180007	17.224589804107	95.8504392893691
329.376715725918	16.9849055748186	95.8577908913769
334.167610376772	16.7483626360942	95.8649436644382
339.028190194974	16.5149276045535	95.8719027121949
343.959468774623	16.2845671373222	95.8786730218541
348.962474452882	16.0572479464591	95.885259466068
354.038250524427	15.8329368127575	95.8916668048267
359.187855458999	15.6116005989382	95.8978996873612
364.412363122141	15.3932062622455	95.9039626540535
369.712862999127	15.1777208664629	95.9098601383506
375.090460422161	14.9651115933607	95.9155964686804
380.546276800871	14.755345753592	95.9211758703671
386.081449856167	14.5483907970516	95.9266024675428
391.69713385749	14.3442143227111	95.9318802850551
397.394499863515	14.142784087947	95.9370132503661
403.174735966359	13.9440680173749	95.9420051954437
409.039047539338	13.7480342112051	95.9468598586409
414.988657488323	13.5546509531347	95.951580886564
421.024806506764	13.3638867177889	95.9561718359254
427.148753334411	13.1757101777284	95.9606361753823
433.361775019806	12.9900902100339	95.9649772873583
439.665167186588	12.8069959024848	95.969198469847
446.06024430368	12.6263965593428	95.9733029381975
452.54833995939	12.4482617067571	95.9772938268796
459.13080713952	12.272561097801	95.9811741912279
465.8090185095	12.0992647171561	95.9849470091656
472.58436670064	11.9283427854553	95.9886151829046
479.458264600538	11.7597657632965	95.9921815406239
486.432145647717	11.5935043549414	95.9956488381238
493.507464130541	11.4295295117093	95.9990197604568
500.685695490488	11.2678124350789	96.0022969235333
507.968336629824	11.1083245795092	96.0054828757032
515.356906223761	10.9510376549901	96.0085800993124
522.852945037152	10.7959236293344	96.0115910122331
530.458016245788	10.6429547302221	96.0145179693698
538.173705762377	10.4921034470052	96.0173632641385
546.001622567259	10.3433425322863	96.0201291299206
553.943399043932	10.1966450032773	96.0228177414908
562.000691319456	10.0519841429503	96.0254312164191
570.175179609817	9.90933350098906	96.0279716164464
578.468568570305	9.76866689454852	96.0304409488346
586.88258765099	9.62995840883366	96.0328411676911
595.418991457374	9.49318239750371	96.0351741752667
604.079560116284	9.35831348291105	96.0374418232288
612.866099647087	9.22532655618219	96.0396459139082
621.780442338308	9.09419677714851	96.0417882015217
630.82444712972	8.96489957413408	96.0438703933684
640	8.83741064360757	96.0458941510019
649.309014360015	8.71170594970506	96.0478610913777
658.753431451835	8.58776172363045	96.0497727879762
668.335220753545	8.46555446293966	96.0516307719009
678.056380389949	8.34506093071489	96.0534365329543
687.918937549246	8.22625815463469	96.0551915206883
697.924948905765	8.10912342594563	96.0568971454328
708.076501048853	7.99363429834105	96.058554779301
718.375710917999	7.87976858675199	96.0601657571712
728.824726244283	7.76750436605567	96.061731377648
739.425725998255	7.65681996970599	96.0632529039997
750.180920844321	7.54769398829107	96.0647315650754
761.092553601741	7.44010526802222	96.0661685562004
772.162899712334	7.33403290915848	96.0675650400502
783.39426771498	7.2294562643712	96.068922147505
794.78899972703	7.12635493705233	96.070240978483
806.349471932719	7.02470877957044	96.071522602754
818.078095078676	6.92449789147798	96.0727680607342
829.977314976646	6.82570261767342	96.0739783642612
842.049613013528	6.72830354652146	96.0751544973502
854.297506668822	6.63228150793471	96.076297416932
866.723550039611	6.53761757141974	96.0774080535734
879.330334373177	6.44429304409055	96.0784873121786
892.12048860736	6.35228946865223	96.0795360726748
905.096679918781	6.26158862135749	96.0805551906794
918.26161427904	6.17217250993866	96.081545498152
931.618037019	6.08402337151759	96.0825078040283
945.16873340128	5.99712367049573	96.08344289484
958.916529201076	5.91145609642679	96.0843515353174
972.864291295434	5.82700356187386	96.0852344689777
987.014928261082	5.74374920025328	96.0860924186984
1001.37139098098	5.66167636366701	96.0869260872751
1015.93667325965	5.58076862072533	96.0877361579661
1030.71381244752	5.50100975436183	96.0885232950227
1045.7058900743	5.42238375964207	96.0892881442051
1060.91603249158	5.34487484156767	96.0900313332862
1076.34741152475	5.26846741287737	96.0907534725416
1092.00324513452	5.19314609184627	96.0914551552267
1107.88679808786	5.11889570008482	96.0921369580418
1124.00138263891	5.04570126033878	96.0927994415849
1140.35035921963	4.97354799429123	96.0934431507925
1156.93713714061	4.90242132036807	96.0940686153692
1173.76517530198	4.83230685154779	96.0946763502052
1190.83798291475	4.76319039317664	96.0952668557839
1208.15912023257	4.69505794079041	96.0958406185776
1225.73219929417	4.62789567794325	96.0963981114335
1243.56088467662	4.56168997404492	96.0969397939488
1261.64889425944	4.49642738220683	96.0974661128368
1280	4.43209463709803	96.0979775022816
1298.61802872003	4.36867865281149	96.0984743842854
1317.50686290367	4.30616652074169	96.0989571690044
1336.67044150709	4.24454550747393	96.0994262550776
